-404,-583,-650,-681,-723,-828,-942,-1079,-1125,-919,-669,-570,-641,-741,-696,-492,-279,-182,-226,-313,-307,-190,-16,54,-32,-199,-266,-158,6,69,-30,-194,-245,-119,49,100,-11,-184,-241,-129,10,21,-59,-225,-276,-171,-47,-39,-120,-281,-340,-259,-167,-169,-274,-450,-511,-415,-297,-290,-374,-516,-529,-452,-331,-324,-411,-576,-628,-525,-394,-381,-447,-584,-596,-519,-400,-393,-481,-643,-695,-603,-491,-482,-550,-671,-678,-589,-443,-393,-477,-589,-592,-495,-363,-349,-413,-539,-548,-462,-338,-329,-404,-545,-559,-486,-369,-360,-437,-575,-587,-512,-384,-373,-447,-579,-589,-507,-366,-313,-383,-465,-456,-323,-152,-87,-167,-289,-298,-223,-128,-131,-239,-408,-461,-363,-243,-233,-302,-430,-438,-352,-211,-168,-257,-374,-379,-284,-135,-87,-179,-299,-307,-226,-107,-98,-172,-307,-320,-250,-123,-110,-168,-289,-295,-205,-76,-62,-124,-238,-242,-146,0,47,-39,-156,-163,-79,47,59,-8,-131,-140,-56,73,86,20,-115,-128,-55,64,73,0,-131,-141,-59,67,79,14,-112,-122,-49,73,83,14,-119,-133,-71,34,37,-55,-213,-263,-174,-80,-81,-181,-340,-384,-293,-191,-187,-270,-406,-417,-336,-197,-155,-247,-368,-374,-284,-151,-137,-198,-318,-325,-239,-109,-97,-165,-287,-295,-212,-86,-73,-137,-254,-260,-173,-42,-27,-89,-202,-207,-115,12,23,-45,-164,-171,-89,19,24,-59,-189,-200,-122,-9,-2,-85,-217,-228,-149,-27,-16,-86,-194,-197,-102,24,35,-37,-153,-161,-82,29,35,-46,-160,-165,-77,37,44,-37,-159,-167,-80,38,46,-30,-135,-137,-40,76,83,2,-107,-111,-22,94,101,19,-92,-95,3,124,133,53,-49,-49,52,170,177,95,-17,-22,68,178,182,93,-21,-24,74,189,196,117,18,20,128,245,251,165,55,52,151,258,260,161,47,44,144,259,265,178,74,75,184,311,321,245,130,125,212,308,306,203,90,88,192,311,321,250,151,152,257,364,366,268,145,139,230,337,341,259,165,167,275,381,382,279,160,158,264,376,387,327,225,271,438,588,633,520,384,371,438,494,474,317,162,148,228,337,343,269,177,182,301,425,433,348,228,224,323,423,425,334,232,234,352,463,467,374,256,254,358,466,470,384,279,281,396,510,516,428,309,305,406,509,512,422,312,312,421,528,531,440,330,331,444,550,554,468,366,369,491,602,607,521,410,411,525,628,629,533,421,421,533,636,636,535,410,404,500,585,576,447,302,289,367,445,435,306,165,151,220,299,289,159,25,17,111,215,216,118,5,2,100,193,189,71,-59,-66,29,132,135,46,-55,-53,58,164,165,66,-52,-54,57,162,163,63,-60,-66,22,116,112,2,-128,-135,-39,68,71,-20,-126,-126,-21,81,83,-10,-123,-125,-17,87,88,-12,-132,-135,-31,66,67,-30,-143,-145,-41,62,62,-37,-155,-158,-59,35,33,-69,-179,-179,-67,39,42,-47,-153,-152,-42,52,49,-60,-172,-173,-62,34,32,-77,-191,-192,-84,13,12,-93,-198,-195,-74,31,30,-81,-208,-214,-116,-24,-29,-144,-262,-262,-145,-27,-22,-114,-230,-233,-133,-33,-34,-135,-246,-247,-139,-34,-32,-127,-231,-231,-127,-32,-35,-146,-258,-258,-148,-44,-43,-140,-242,-240,-126,-24,-24,-128,-241,-241,-131,-28,-27,-127,-237,-238,-131,-27,-28,-133,-250,-253,-153,-56,-58,-164,-273,-274,-167,-65,-64,-161,-266,-267,-165,-72,-74,-175,-279,-280,-183,-92,-84,-137,-204,-147,-15,92,125,121,98,84,72,48,-4,-66,-141,-167,-192,-214,-221,-223,-216,-201,-177,-155,-141,-148,-188,-191,-144,-90,-90,-141,-218,-217,-135,-48,-48,-130,-231,-232,-133,-36,-35,-122,-217,-215,-107,-7,-7,-105,-212,-211,-98,0,1,-94,-187,-182,-63,40,40,-61,-166,-163,-47,56,58,-34,-125,-117,12,118,122,34,-58,-52,75,177,179,85,-9,-3,124,222,221,119,18,21,137,218,208,75,-51,-57,35,104,90,-53,-189,-199,-115,-32,-40,-167,-288,-293,-199,-112,-118,-237,-345,-345,-240,-148,-151,-255,-350,-345,-227,-133,-137,-248,-355,-353,-233,-131,-131,-229,-327,-322,-202,-108,-111,-220,-326,-324,-206,-109,-111,-218,-324,-323,-207,-112,-115,-223,-328,-324,-198,-93,-92,-196,-303,-304,-197,-114,-120,-233,-332,-328,-204,-99,-99,-199,-297,-292,-169,-83,-88,-199,-295,-289,-160,-59,-59,-160,-252,-244,-106,-11,-15,-133,-237,-235,-116,-29,-35,-155,-266,-263,-136,-28,-27,-130,-229,-224,-95,0,-3,-113,-218,-215,-92,3,2,-105,-207,-203,-79,14,10,-99,-202,-198,-71,29,29,-73,-170,-165,-38,59,58,-47,-146,-141,-14,81,79,-25,-123,-118,7,96,91,-21,-124,-119,15,117,117,13,-86,-81,46,144,142,35,-70,-67,59,164,165,63,-41,-38,82,174,172,69,-30,-24,107,215,219,130,31,35,154,239,234,120,7,7,123,216,213,108,7,11,135,230,228,121,15,16,130,224,222,126,27,28,136,216,215,136,72,85,213,325,353,361,376,398,438,447,397,313,223,174,146,126,113,108,116,129,138,151,158,157,151,134,192,212,200,161,82,82,159,242,247,186,99,101,202,289,287,189,75,74,181,291,295,210,107,109,220,313,310,204,83,81,189,296,299,212,120,126,250,361,365,275,164,165,276,393,400,319,222,228,354,465,469,379,268,268,375,489,495,408,299,299,408,517,519,416,286,277,354,431,422,297,153,138,204,277,268,148,9,0,81,168,165,61,-54,-57,39,131,130,33,-74,-74,28,120,117,12,-98,-98,10,105,104,5,-106,-106,4,106,106,7,-104,-105,1,99,101,10,-87,-84,27,126,126,27,-78,-77,35,134,134,35,-70,-69,45,150,151,54,-60,-62,41,141,142,47,-63,-65,34,128,127,28,-83,-84,18,116,116,16,-94,-96,4,100,100,1,-110,-111,-5,95,96,-1,-116,-119,-17,79,79,-15,-124,-125,-21,80,81,-12,-125,-127,-28,69,70,-22,-127,-125,-8,94,95,-5,-120,-125,-32,52,48,-55,-168,-168,-58,53,58,-27,-132,-131,-24,65,62,-42,-149,-148,-32,72,73,-22,-129,-130,-28,59,55,-51,-166,-167,-56,51,54,-36,-137,-136,-24,64,61,-43,-156,-157,-52,48,49,-46,-150,-148,-34,67,69,-24,-122,-119,-6,89,89,-10,-116,-116,-12,77,74,-34,-141,-140,-24,73,73,-27,-136,-136,-29,65,66,-29,-134,-134,-33,50,49,-37,-125,-125,-37,15,32,16,-29,27,157,229,252,234,180,119,70,6,-41,-60,-71,-80,-86,-89,-92,-93,-95,-101,-95,-65,-49,-67,-102,-100,-23,40,39,-30,-119,-118,-26,58,58,-29,-122,-120,-13,77,76,-17,-112,-107,11,109,108,9,-82,-77,43,138,136,34,-64,-61,54,152,152,53,-41,-36,87,188,189,94,3,9,133,238,240,147,57,64,194,302,306,216,125,132,255,356,357,255,146,144,248,333,327,204,80,73,161,229,217,84,-49,-59,20,91,81,-41,-163,-168,-72,12,7,-104,-212,-212,-103,-11,-12,-112,-205,-200,-76,24,25,-72,-175,-175,-66,17,11,-103,-211,-211,-101,-7,-9,-109,-204,-200,-83,10,8,-94,-191,-186,-67,27,26,-75,-170,-166,-47,44,42,-60,-160,-157,-41,47,43,-67,-168,-164,-45,46,43,-64,-166,-165,-57,22,14,-108,-221,-222,-112,-14,-14,-112,-202,-195,-72,24,24,-73,-168,-163,-43,52,51,-47,-142,-138,-23,59,53,-57,-153,-151,-38,45,40,-69,-168,-166,-52,35,31,-78,-172,-168,-46,35,30,-80,-173,-170,-53,36,33,-71,-167,-163,-45,37,30,-86,-187,-184,-64,25,22,-83,-186,-187,-84,-8,-16,-135,-239,-238,-124,-28,-28,-121,-197,-187,-54,39,37,-69,-164,-160,-42,48,45,-61,-154,-150,-32,60,56,-58,-169,-172,-69,8,1,-108,-196,-189,-59,48,53,-29,-109,-101,25,120,118,9,-84,-79,43,140,139,39,-53,-50,59,140,134,17,-87,-87,20,108,105,1,-85,-79,42,119,112,0,-93,-89,25,110,110,31,-13,5,147,244,252,202,152,151,177,191,163,84,27,9,-1,-6,-11,-13,-15,-19,-25,-28,-26,-18,-7,5,20,44,46,26,-9,-3,54,86,70,23,-50,-45,54,136,135,43,-39,-33,81,166,163,65,-15,-7,118,209,205,93,0,3,121,204,198,82,-11,-6,118,218,218,121,36,44,175,275,277,184,107,116,245,339,338,239,160,169,299,394,392,286,197,202,319,389,377,245,135,132,226,285,269,126,12,7,103,159,143,1,-111,-114,-15,46,33,-96,-199,-197,-81,-1,-8,-123,-207,-199,-72,5,-2,-124,-213,-208,-88,-6,-13,-134,-223,-217,-92,-10,-17,-138,-230,-224,-98,-11,-16,-129,-214,-208,-85,-2,-8,-122,-209,-204,-85,-7,-15,-133,-219,-212,-83,-5,-13,-135,-219,-211,-82,0,-5,-124,-215,-211,-92,-11,-18,-137,-223,-216,-90,-11,-17,-133,-212,-204,-77,1,-6,-125,-211,-205,-79,3,-2,-124,-208,-200,-70,8,1,-118,-205,-200,-82,-5,-13,-132,-217,-210,-80,3,-1,-118,-199,-191,-66,10,3,-112,-193,-186,-64,8,-1,-124,-204,-196,-65,13,6,-110,-187,-178,-48,28,21,-100,-184,-176,-47,34,29,-84,-160,-151,-24,46,36,-86,-168,-160,-33,43,35,-84,-155,-144,-10,59,48,-82,-171,-165,-40,40,33,-88,-163,-151,-11,65,57,-64,-146,-139,-14,63,57,-56,-123,-109,36,120,113,-7,-82,-72,62,138,129,4,-70,-60,75,150,140,7,-83,-79,37,103,91,-35,-108,-97,33,106,99,-8,-80,-63,18,62,40,10,-10,29,151,241,270,286,293,287,270,247,210,145,87,44,18,0,-16,-24,-15,5,39,71,92,88,58,41,67,117,120,33,-32,-25,79,142,132,18,-55,-46,78,153,145,25,-47,-36,101,179,170,41,-36,-27,105,186,180,62,-10,-1,129,206,198,79,8,19,152,223,214,94,30,44,191,272,266,150,87,102,249,336,333,224,161,176,319,400,393,272,195,204,328,387,373,237,150,168,262,312,274,157,53,58,126,162,117,-21,-122,-108,-21,25,-10,-116,-187,-160,-55,0,-33,-134,-210,-184,-76,-19,-51,-148,-217,-188,-76,-17,-47,-138,-201,-172,-62,-4,-37,-135,-205,-179,-73,-16,-50,-149,-214,-185,-73,-13,-45,-142,-212,-185,-76,-18,-69,-139,-189,-129,-49,9,-22,-114,-184,-157,-51,5,-29,-128,-197,-168,-58,0,-33,-129,-195,-166,-58,0,-33,-130,-197,-169,-62,-5,-40,-144,-216,-187,-73,-13,-45,-139,-206,-178,-70,-13,-46,-143,-212,-185,-77,-19,-52,-150,-214,-185,-74,-15,-47,-143,-207,-179,-72,-14,-47,-144,-207,-178,-69,-10,-63,-133,-185,-131,-58,-5,-40,-147,-208,-180,-73,-15,-72,-148,-202,-143,-64,-7,-41,-143,-207,-177,-66,-6,-40,-140,-201,-169,-55,5,-27,-126,-191,-166,-65,-10,-46,-153,-218,-192,-88,-32,-87,-160,-214,-156,-78,-21,-71,-138,-187,-127,-47,12,-42,-115,-167,-110,-34,19,-35,-106,-159,-104,-31,22,-14,-120,-182,-154,-52,3,-53,-128,-183,-127,-52,1,-56,-133,-188,-145,-85,-41,-82,-135,-173,-127,3,81,101,117,133,149,171,194,145,65,-8,-60,-99,-121,-134,-144,-152,-153,-145,-130,-116,-100,-88,-83,-82,-77,-63,-68,-114,-100,-22,20,-23,-82,-126,-72,0,52,4,-60,-107,-48,34,93,42,-25,-74,-8,81,146,109,4,-49,-28,133,203,176,73,18,66,211,294,272,172,119,162,295,375,352,251,199,244,382,456,431,327,271,318,457,528,515,371,310,345,469,536,495,369,284,307,412,468,422,280,184,200,291,340,291,142,48,65,159,209,162,22,-52,-22,94,156,117,0,-60,-25,99,165,125,2,-64,-32,91,155,113,-12,-82,-50,69,133,93,-25,-88,-69,92,156,139,-12,-69,-34,89,155,116,0,-55,-36,127,193,178,28,-29,6,131,198,156,29,-35,-3,118,184,144,21,-45,-14,103,166,124,-1,-70,-38,82,146,106,-12,-70,-36,86,152,111,-11,-75,-41,80,146,105,-18,-79,-46,72,136,95,-28,-90,-57,64,129,88,-36,-96,-62,58,123,80,-48,-112,-81,36,97,51,-85,-152,-122,-4,59,16,-112,-178,-160,0,60,41,-119,-176,-142,-23,40,-1,-129,-192,-161,-44,18,-20,-145,-205,-170,-44,23,-18,-144,-199,-166,-49,13,-28,-155,-208,-171,-45,21,-37,-117,-176,-113,-25,38,-5,-137,-192,-156,-32,34,-29,-113,-173,-106,-14,51,-9,-94,-154,-89,0,64,21,-104,-158,-122,-3,59,12,-124,-180,-146,-29,33,-31,-118,-182,-137,4,67,36,-76,-138,-76,8,71,18,-50,-100,-51,95,153,171,159,136,148,203,231,159,82,23,-10,-30,-43,-53,-58,-64,-73,-79,-78,-72,-62,-52,-44,-35,-22,-5,12,27,41,66,96,54,-3,-47,0,64,113,57,-17,-71,-9,74,136,76,-4,-64,3,96,164,106,29,-27,44,140,211,151,73,15,87,185,256,202,129,76,150,249,323,270,199,147,218,314,385,325,247,190,258,350,418,357,276,218,288,384,454,409,275,223,253,359,416,361,196,125,146,239,289,234,69,5,30,131,187,117,21,-49,12,97,160,97,10,-53,10,96,160,93,3,-63,0,87,151,86,0,-62,-3,75,134,63,-30,-100,-43,33,90,23,-66,-132,-69,15,79,11,-79,-146,-81,4,68,4,-80,-144,-82,1,63,-3,-91,-157,-97,-18,41,-28,-120,-189,-128,-46,14,-53,-143,-211,-148,-63,0,-66,-155,-221,-160,-78,-16,-83,-172,-238,-174,-88,-24,-90,-179,-245,-184,-101,-40,-109,-201,-269,-208,-125,-64,-131,-220,-286,-224,-141,-79,-145,-234,-299,-236,-151,-88,-150,-232,-294,-232,-149,-86,-147,-227,-287,-221,-132,-65,-127,-209,-270,-203,-113,-45,-110,-197,-262,-195,-106,-39,-101,-183,-245,-181,-94,-29,-93,-179,-243,-180,-96,-33,-93,-173,-234,-163,-68,2,-56,-134,-193,-127,-38,28,-34,-118,-181,-116,-27,38,-27,-114,-180,-120,-40,19,-49,-142,-210,-151,-72,-14,-72,-150,-207,-145,-61,0,-39,-109,-120,-41,61,90,107,118,119,107,84,53,-1,-68,-91,-104,-115,-124,-130,-131,-133,-136,-135,-129,-118,-104,-88,-72,-38,14,-24,-79,-121,-78,-17,28,-29,-108,-167,-107,-25,37,-23,-106,-166,-101,-12,52,-12,-100,-164,-100,-14,49,-17,-139,-175,-123,15,61,-1,-117,-147,-83,62,110,49,-63,-92,-28,117,165,101,-16,-49,8,152,198,136,20,-9,57,207,256,194,80,48,104,261,279,220,59,6,61,165,191,122,-47,-104,-54,42,66,-6,-174,-229,-175,-100,-46,-114,-209,-278,-217,-132,-70,-137,-263,-299,-242,-108,-64,-133,-258,-295,-237,-111,-70,-139,-268,-305,-248,-115,-71,-140,-267,-304,-247,-120,-78,-147,-273,-308,-240,-95,-47,-110,-225,-254,-183,-37,10,-54,-174,-206,-141,1,48,-17,-139,-173,-114,20,65,0,-121,-154,-91,45,89,24,-97,-131,-74,52,94,25,-102,-139,-80,52,95,30,-91,-125,-62,66,108,40,-86,-121,-59,70,113,47,-75,-109,-49,77,119,50,-78,-115,-57,70,112,45,-79,-113,-47,85,128,64,-55,-87,-21,106,148,80,-46,-82,-21,103,145,78,-45,-78,-9,122,166,99,-26,-60,3,136,179,112,-11,-45,20,153,197,129,2,-34,21,147,186,120,-4,-36,30,163,208,145,29,0,68,224,241,181,13,-5,59,188,229,161,35,2,69,226,243,180,10,-9,55,211,228,169,4,-13,55,169,206,142,22,-8,57,178,216,186,130,131,238,355,392,352,311,282,249,217,177,134,107,90,76,65,59,58,66,76,87,102,129,132,117,87,92,145,175,142,95,60,113,187,243,182,99,37,94,201,229,166,8,-5,72,202,246,181,60,27,98,251,267,204,43,27,100,223,263,199,80,50,128,287,306,245,91,79,165,296,338,276,159,133,221,354,397,336,218,190,273,432,450,386,222,204,273,417,427,341,191,143,196,297,315,220,62,11,63,164,182,88,-95,-118,-64,73,83,5,-159,-175,-101,49,63,-7,-171,-186,-109,38,51,-20,-181,-195,-113,39,53,-16,-177,-191,-108,44,58,-14,-180,-195,-118,39,55,-12,-172,-186,-106,40,53,-20,-182,-196,-117,40,57,-1,-155,-167,-79,71,84,8,-153,-167,-87,68,84,19,-135,-147,-62,91,106,34,-127,-143,-67,77,89,12,-152,-167,-91,51,62,-13,-169,-181,-93,56,69,-7,-167,-179,-92,59,73,-2,-162,-175,-91,64,78,5,-157,-171,-92,57,69,-7,-167,-181,-100,46,58,-17,-176,-190,-106,42,55,-18,-173,-184,-96,55,69,-5,-165,-178,-95,52,64,-11,-168,-180,-92,57,70,-5,-159,-172,-87,56,67,-12,-170,-183,-98,46,56,-26,-189,-203,-121,21,33,-42,-194,-205,-116,27,38,-40,-194,-206,-120,23,34,-42,-186,-194,-96,54,65,-18,-179,-193,-115,13,19,-75,-236,-249,-163,-20,-7,-80,-222,-230,-131,8,19,-60,-199,-209,-125,-35,-5,-42,-110,-112,10,128,165,136,106,85,59,28,-18,-92,-130,-148,-165,-178,-186,-192,-194,-197,-199,-197,-191,-185,-177,-169,-159,-140,-111,-145,-192,-228,-183,-119,-73,-127,-228,-246,-148,-6,6,-62,-198,-204,-103,39,50,-28,-170,-176,-68,82,95,14,-126,-133,-28,115,126,41,-100,-106,4,161,176,102,-32,-36,78,239,255,185,55,52,162,315,328,248,110,106,216,372,384,299,151,141,236,364,367,261,88,69,136,249,248,135,-40,-59,11,121,120,6,-157,-170,-81,47,52,-46,-196,-204,-105,31,39,-52,-195,-202,-100,41,51,-37,-184,-192,-90,47,54,-40,-182,-188,-79,58,66,-27,-173,-180,-80,52,59,-34,-175,-180,-71,70,80,-7,-144,-149,-42,88,93,-8,-152,-160,-56,74,80,-19,-160,-167,-61,71,77,-21,-164,-170,-62,75,83,-9,-151,-157,-52,77,82,-17,-157,-163,-55,79,85,-9,-150,-156,-49,82,86,-18,-165,-172,-66,67,73,-24,-169,-177,-76,58,65,-30,-168,-173,-63,70,76,-24,-165,-171,-64,69,75,-25,-167,-173,-64,68,73,-24,-169,-177,-74,58,64,-28,-160,-163,-53,74,77,-29,-173,-180,-76,48,52,-51,-178,-179,-55,80,86,-13,-151,-155,-41,97,103,2,-135,-139,-24,109,114,11,-128,-134,-25,108,115,22,-108,-110,4,136,141,38,-97,-101,11,136,138,30,-104,-110,-3,115,119,15,-114,-120,-13,99,105,23,-71,-57,44,86,93,98,111,146,244,328,357,357,329,287,220,155,109,74,55,38,24,15,11,14,24,37,52,79,115,86,45,15,64,154,174,97,-12,-12,95,219,226,139,18,17,132,257,259,149,9,4,120,252,257,159,38,39,164,297,303,203,78,77,200,336,342,243,123,125,257,394,400,300,181,183,313,449,455,354,227,226,349,486,494,400,287,292,427,563,569,466,335,330,440,544,538,402,250,237,326,414,404,267,137,92,116,162,150,-6,-119,-156,-113,-71,-43,-18,7,27,39,48,59,68,76,80,79,72,62,51,38,19,-11,-66,-113,-162,-202,-179,-108,-5,29,6,-36,-33,61,155,157,66,-45,-46,61,173,172,57,-84,-94,-3,74,58,-94,-239,-245,-128,-3,2,-89,-181,-168,-13,124,130,20,-107,-108,16,127,124,-1,-143,-154,-62,4,-14,-177,-327,-335,-225,-110,-108,-214,-314,-304,-150,-16,-11,-126,-249,-247,-118,-6,-8,-135,-261,-263,-145,-36,-39,-161,-284,-284,-155,-34,-35,-156,-284,-286,-168,-67,-73,-206,-332,-333,-213,-109,-114,-242,-367,-367,-241,-134,-138,-268,-389,-387,-254,-143,-147,-276,-404,-405,-281,-172,-175,-303,-425,-422,-284,-158,-155,-269,-385,-382,-251,-134,-136,-261,-403,-412,-317,-245,-262,-419,-556,-559,-436,-316,-312,-413,-499,-483,-322,-194,-191,-310,-426,-425,-298,-192,-196,-319,-450,-444,-359,-312,-343,-435,-507,-492,-330,-190,-145,-116,-95,-70,-42,-49,-105,-137,-155,-173,-188,-201,-213,-221,-227,-236,-247,-256,-266,-283,-311,-308,-263,-226,-197,-169,-141,-111,-47,7,49,-60,-157,-155,-44,50,46,-65,-172,-171,-59,8,-9,-172,-304,-304,-171,-49,-44,-140,-202,-177,13,159,166,52,-56,-51,87,195,192,71,-26,-17,132,251,250,131,29,37,184,299,298,179,84,96,251,369,368,246,140,144,277,367,356,207,79,75,191,270,254,97,-33,-36,81,160,146,-12,-138,-139,-17,72,62,-85,-203,-200,-61,42,35,-111,-256,-255,-176,-134,-174,-293,-398,-391,-246,-140,-104,-129,-176,-152,-42,15,-24,-77,-115,-86,-52,-26,-28,-54,-82,-116,-155,-208,-255,-283,-301,-262,-200,-130,-87,-61,-44,-32,-25,-14,15,14,-40,-27,50,93,65,-19,-113,-145,-112,-53,-59,-206,-305,-294,-136,1,11,-73,-133,-112,55,154,146,1,-110,-105,33,133,127,-6,-103,-96,49,131,117,-41,-184,-188,-121,-84,-119,-225,-289,-273,-124,-52,-31,-17,-4,5,13,18,23,28,33,34,34,32,29,27,23,11,-5,-26,-49,-107,-164,-186,-164,-102,-74,-48,-24,2,104,190,188,88,1,9,138,232,222,87,-34,-28,52,95,45,-106,-224,-220,-73,48,54,-42,-98,-73,108,218,212,72,-33,-27,115,208,199,59,-51,-38,57,108,64,-69,-162,-146,30,169,167,90,50,97,240,326,308,134,-10,-17,92,169,156,12,-71,-58,94,176,161,0,-126,-128,-9,65,53,-87,-159,-138,49,181,189,88,20,36,190,282,273,133,37,43,172,221,194,4,-122,-124,1,85,78,-46,-142,-64,138,272,278,165,83,97,253,346,336,192,104,115,272,355,339,176,49,43,148,214,201,65,5,27,210,349,360,316,294,342,408,454,413,376,354,333,317,307,293,240,146,90,-6,-100,-134,-144,-130,-103,-60,-29,-21,-17,-12,-3,10,39,39,-39,-106,-100,1,69,60,-53,-129,-117,19,98,86,-54,-141,-130,21,106,95,-51,-142,-132,17,96,83,-68,-158,-147,4,91,80,-68,-162,-154,-10,64,50,-103,-193,-182,-32,50,39,-107,-194,-183,-31,48,36,-113,-197,-185,-31,48,36,-112,-195,-182,-20,67,56,-92,-180,-169,-17,59,46,-107,-198,-189,-38,44,33,-115,-206,-197,-47,28,15,-135,-220,-209,-56,23,11,-133,-213,-200,-44,39,28,-118,-200,-187,-31,47,33,-118,-200,-187,-32,46,33,-114,-195,-181,-24,59,49,-94,-167,-152,10,90,77,-73,-153,-141,12,90,76,-74,-151,-136,25,107,95,-53,-129,-115,43,126,116,-24,-99,-84,73,147,133,-23,-106,-95,55,123,107,-47,-122,-108,47,119,104,-47,-124,-114,27,95,73,-20,-68,-30,87,142,156,169,190,212,247,283,243,180,115,65,28,-5,-24,-34,-43,-51,-58,-59,-53,-43,-32,-21,-4,24,28,2,-41,-28,58,104,75,-11,-73,-58,81,152,139,3,-64,-48,109,185,171,22,-50,-34,130,202,187,30,-39,-23,143,223,210,60,-9,7,172,250,236,81,5,20,185,270,260,117,53,73,247,334,325,182,112,128,289,370,359,215,148,164,325,400,386,228,147,171,279,337,288,136,32,47,147,199,149,-2,-99,-76,37,96,51,-81,-165,-153,-3,62,44,-114,-187,-171,-6,67,51,-104,-179,-164,-5,60,44,-116,-192,-177,-17,56,43,-107,-175,-159,4,75,60,-96,-171,-156,1,67,50,-108,-181,-166,-2,69,54,-100,-166,-149,16,85,69,-87,-158,-142,19,89,73,-83,-155,-139,24,92,74,-89,-166,-152,3,70,54,-102,-171,-156,3,70,53,-106,-178,-163,-3,58,40,-123,-190,-174,-10,58,42,-116,-184,-167,-2,70,56,-99,-167,-150,13,79,62,-97,-165,-150,8,71,53,-108,-176,-159,2,69,52,-110,-178,-162,3,69,52,-109,-181,-166,-8,54,36,-124,-194,-180,-21,38,21,-138,-202,-184,-19,47,31,-125,-188,-170,-1,61,42,-124,-194,-178,-16,51,36,-119,-181,-163,2,72,58,-96,-160,-142,22,88,72,-85,-148,-115,9,77,35,-92,-159,-143,17,81,67,-82,-140,-108,8,70,14,-61,-114,-53,7,49,80,96,111,169,267,301,294,244,198,155,119,90,73,62,51,39,32,28,28,33,37,41,45,58,77,48,-7,-2,71,112,66,1,-46,13,95,154,119,13,-44,-12,107,170,127,-1,-66,-47,117,180,163,9,-41,-19,157,222,204,44,-12,6,173,234,216,54,-1,17,187,252,236,78,28,52,236,312,286,174,116,163,310,382,368,213,158,178,347,410,391,224,157,185,295,354,303,145,57,76,174,226,175,14,-72,-51,50,105,56,-92,-165,-138,-26,33,-13,-155,-215,-179,-51,15,-28,-162,-221,-186,-63,3,-40,-171,-225,-203,-27,40,24,-131,-182,-146,-21,45,1,-132,-188,-169,0,60,42,-116,-170,-135,-13,52,8,-123,-178,-142,-15,52,-7,-91,-151,-85,7,74,31,-100,-153,-116,10,78,33,-99,-152,-114,12,80,36,-94,-146,-109,18,86,42,-91,-153,-119,1,67,20,-119,-179,-147,-29,33,-12,-152,-213,-179,-55,10,-32,-162,-213,-177,-52,14,-30,-167,-227,-195,-79,-17,-63,-202,-253,-216,-90,-23,-68,-203,-256,-219,-92,-23,-68,-202,-259,-224,-100,-32,-76,-209,-262,-227,-102,-36,-97,-180,-239,-172,-78,-10,-54,-188,-239,-204,-82,-16,-62,-196,-247,-207,-81,-12,-77,-164,-228,-163,-75,-9,-72,-157,-220,-151,-55,13,-49,-132,-192,-123,-29,39,-24,-109,-170,-121,26,85,49,-70,-135,-72,10,72,23,-123,-188,-157,-40,23,-35,-118,-179,-120,-39,19,-36,-114,-169,-95,-24,23,60,87,112,163,205,227,199,97,31,-6,-38,-75,-123,-173,-197,-213,-225,-233,-235,-231,-226,-221,-214,-198,-178,-200,-246,-238,-168,-129,-172,-232,-277,-225,-152,-98,-152,-224,-279,-213,-120,-53,-112,-192,-251,-181,-84,-15,-75,-156,-215,-164,-11,50,22,-80,-134,-80,82,143,113,5,-52,0,158,224,196,59,29,80,273,347,322,216,161,213,372,437,407,293,234,282,431,492,473,309,259,291,406,468,414,250,177,198,292,343,288,119,42,62,158,211,158,0,-61,-31,79,139,71,-22,-91,-23,68,137,79,0,-59,12,109,182,119,34,-26,42,135,202,137,51,-12,53,143,210,160,15,-32,8,137,207,141,53,-10,56,145,211,164,19,-34,0,122,187,140,0,-49,-14,103,167,119,-27,-80,-49,64,125,56,-37,-106,-43,41,104,56,-88,-138,-105,12,76,9,-78,-143,-73,21,90,28,-55,-118,-53,34,100,34,-53,-118,-49,42,110,45,-39,-102,-38,48,113,47,-40,-105,-37,53,120,55,-31,-95,-28,62,129,64,-21,-85,-14,80,151,85,-2,-66,1,92,159,95,10,-52,15,107,175,107,16,-50,10,93,154,89,2,-61,8,102,172,114,36,-21,49,144,215,147,55,-10,57,148,215,149,61,-3,63,152,218,168,20,-32,1,114,175,104,9,-59,-3,71,125,59,-28,-91,-41,29,80,43,-4,-38,16,105,183,217,242,258,257,242,218,182,112,53,17,-5,-17,-25,-36,-54,-57,-37,-9,16,0,-32,-21,44,82,38,-23,-70,-16,58,114,55,-23,-82,-21,64,127,63,-23,-88,-23,63,129,63,-23,-88,-22,65,131,66,-20,-84,-20,66,131,66,-19,-83,-13,80,149,90,12,-44,26,122,191,130,49,-10,64,165,240,181,73,43,95,251,303,238,152,90,156,245,311,259,103,49,77,184,242,183,10,-60,-39,50,99,42,-128,-191,-164,-56,2,-66,-161,-231,-172,-91,-31,-98,-191,-260,-197,-111,-46,-110,-196,-260,-193,-103,-36,-100,-185,-249,-179,-85,-15,-79,-163,-226,-157,-64,4,-62,-151,-217,-156,-73,-12,-78,-166,-231,-166,-79,-14,-78,-164,-228,-165,-81,-17,-83,-170,-235,-165,-71,-1,-64,-148,-211,-142,-49,19,-47,-136,-203,-139,-52,11,-56,-147,-214,-150,-64,0,-65,-152,-216,-150,-61,4,-61,-148,-213,-143,-49,20,-39,-120,-180,-113,-23,44,-20,-106,-169,-106,-21,42,-22,-108,-173,-107,-19,46,-14,-97,-158,-91,-1,65,2,-82,-145,-80,8,74,11,-72,-135,-70,18,85,17,-72,-139,-71,19,88,26,-56,-117,-48,46,116,51,-36,-101,-36,51,116,52,-34,-98,-31,58,126,59,-29,-95,-33,49,111,41,-51,-121,-60,21,83,18,-69,-134,-72,10,70,18,-50,-100,-30,47,110,118,104,67,168,245,270,223,150,85,43,9,-13,-27,-37,-45,-45,-29,-8,8,26,41,48,48,47,43,38,18,32,100,139,97,39,-4,48,123,179,118,37,-23,34,114,175,109,19,-46,24,121,194,135,54,-3,63,153,219,153,64,0,63,151,214,153,43,14,78,228,277,214,99,67,120,269,318,254,138,105,162,319,370,308,192,160,210,362,411,343,249,182,238,344,373,313,123,61,84,208,232,167,-22,-76,-49,50,105,32,-69,-144,-85,-3,58,-10,-105,-175,-119,-43,14,-52,-142,-210,-147,-62,1,-60,-143,-205,-138,-48,19,-42,-124,-186,-119,-30,37,-29,-118,-184,-117,-26,42,-22,-108,-173,-109,-22,43,-21,-108,-171,-107,-19,44,-17,-100,-162,-99,-13,51,-16,-141,-179,-127,3,48,-24,-122,-193,-130,-45,17,-50,-143,-211,-142,-45,24,-39,-155,-190,-140,3,51,-12,-128,-163,-113,28,76,13,-71,-133,-69,20,86,19,-69,-136,-75,8,71,1,-125,-165,-115,23,69,5,-81,-144,-78,11,77,13,-73,-135,-71,18,84,18,-102,-139,-88,38,81,13,-111,-148,-96,35,79,10,-82,-151,-90,-4,59,-8,-134,-169,-103,50,102,38,-46,-108,-49,30,89,16,-83,-156,-89,4,74,13,-97,-130,-77,47,89,20,-71,-139,-79,2,60,-5,-94,-159,-99,-18,41,-21,-133,-163,-94,55,104,76,28,25,107,177,197,129,70,32,2,-14,-25,-35,-42,-52,-63,-71,-74,-72,-64,-54,-46,-35,-15,-12,-26,-53,-41,23,60,26,-21,-58,-13,51,99,42,-35,-93,-31,54,117,55,-58,-89,-31,105,150,88,-25,-57,1,134,178,111,-13,-47,11,148,192,129,10,-19,49,195,243,178,59,26,94,252,305,245,134,103,164,301,345,279,187,122,185,272,336,271,183,119,174,279,304,226,56,2,50,140,159,78,-88,-143,-88,15,41,-22,-201,-222,-165,-32,11,-54,-179,-216,-163,-8,9,-49,-226,-247,-189,-50,-5,-68,-186,-219,-158,-31,9,-57,-185,-220,-158,-19,25,-37,-154,-185,-123,0,38,-31,-163,-199,-137,5,52,-7,-117,-145,-81,70,87,21,-156,-180,-128,-8,31,-28,-140,-167,-92,27,67,4,-82,-145,-96,-31,15,-20,-59,-88,-116,-140,-216,-333,-332
