21,22,24,26,28,31,32,34,34,35,35,34,34,34,35,35,34,33,33,32,32,33,32,31,29,27,26,26,26,27,27,26,25,23,22,21,19,18,17,15,14,13,12,12,11,10,9,6,4,2,1,1,3,5,8,10,12,16,20,24,27,30,36,41,45,48,48,43,36,27,4,4,36,53,70,80,88,94,98,97,85,69,54,44,36,29,21,13,8,3,-1,-6,-9,-12,-13,-13,-15,-17,-19,-23,-27,-32,-37,-43,-49,-54,-58,-61,-63,-66,-69,-72,-75,-78,-81,-84,-87,-91,-96,-106,-125,-141,-151,-158,-164,-172,-181,-192,-206,-222,-234,-242,-251,-259,-270,-283,-291,-297,-303,-307,-309,-309,-308,-304,-300,-294,-282,-256,-232,-214,-201,-186,-163,-136,-105,-68,-34,-8,11,33,53,70,82,91,98,103,107,110,113,116,119,121,123,124,126,129,132,134,135,135,134,133,131,130,128,125,122,120,117,114,110,106,102,99,97,96,95,93,91,89,87,85,83,81,79,77,76,77,78,78,79,79,80,81,81,81,81,80,79,79,78,77,76,76,76,77,78,79,79,79,79,79,79,78,77,76,75,75,76,78,80,81,81,78,75,71,67,62,59,61,65,69,71,73,74,76,78,81,83,84,85,86,86,86,84,83,81,80,79,79,79,79,78,78,78,78,78,78,77,77,76,75,74,73,71,69,67,67,67,67,66,66,65,65,65,65,65,64,62,60,59,58,58,57,57,57,58,58,58,57,56,55,54,53,52,49,46,43,40,38,35,32,25,8,0,-3,-6,-9,-11,-12,-12,-10,-7,-2,2,6,10,12,15,17,19,21,23,25,27,29,31,33,34,35,35,36,37,39,41,43,48,59,59,43,-1,-66,-148,-248,-365,-487,-604,-697,-734,-730,-672,-568,-439,-298,-155,-17,102,188,224,237,219,189,159,132,105,80,54,42,37,33,30,26,23,20,17,13,10,7,4,1,-1,-3,-6,-9,-12,-14,-16,-19,-23,-27,-30,-32,-33,-36,-39,-43,-48,-53,-61,-70,-78,-85,-91,-97,-103,-109,-115,-122,-128,-133,-140,-148,-158,-169,-178,-187,-197,-209,-222,-235,-251,-268,-282,-290,-296,-301,-304,-306,-306,-303,-299,-293,-285,-273,-254,-239,-219,-194,-167,-142,-118,-92,-61,-35,-16,-1,14,35,61,80,91,98,103,107,110,112,114,116,117,119,120,121,121,121,120,118,116,115,113,112,112,110,109,107,105,103,101,99,96,92,89,86,85,84,84,84,84,83,80,76,66,66,72,74,74,73,72,72,73,74,75,75,75,75,74,73,73,72,71,71,70,70,70,70,71,72,73,74,75,76,76,77,78,79,79,79,80,80,80,81,81,82,83,83,83,84,84,84,84,83,83,81,80,79,78,78,77,77,76,75,74,74,74,74,74,72,71,70,69,68,67,66,65,64,63,62,60,59,58,57,57,57,57,56,55,55,55,55,55,54,53,52,51,51,51,50,49,48,47,46,44,42,40,37,35,32,28,24,21,21,22,24,28,32,35,40,43,45,42,35,26,17,5,-7,-20,-28,-35,-39,-42,-43,-43,-39,-32,-25,-19,-15,-11,-8,-5,-3,-1,0,1,2,3,5,6,7,7,8,8,10,11,12,14,15,18,22,33,39,34,18,-25,-101,-213,-361,-532,-708,-855,-943,-950,-896,-731,-510,-271,-46,129,244,290,305,287,234,174,122,92,60,32,19,13,8,4,0,-1,-5,-8,-11,-14,-17,-20,-22,-23,-25,-27,-30,-34,-37,-41,-45,-49,-54,-58,-62,-66,-70,-74,-80,-85,-89,-93,-97,-101,-104,-107,-110,-113,-116,-122,-133,-145,-158,-171,-184,-195,-204,-213,-223,-234,-245,-256,-267,-280,-294,-306,-317,-325,-331,-335,-339,-343,-347,-349,-349,-346,-340,-331,-316,-290,-265,-240,-216,-191,-164,-134,-99,-64,-37,-17,0,20,54,72,79,85,89,92,95,97,100,102,103,105,106,106,107,109,111,113,116,118,120,123,124,124,122,118,113,108,103,98,90,83,80,80,80,80,80,79,78,76,75,74,74,73,71,70,68,67,67,66,65,64,62,60,59,58,58,56,54,52,51,52,53,54,54,53,53,53,53,55,55,55,54,54,54,55,56,56,56,56,56,57,57,57,56,55,55,56,57,58,59,59,59,59,59,60,59,58,56,55,54,55,55,55,55,54,53,52,51,50,46,44,47,49,50,51,52,52,51,49,46,44,44,43,42,41,39,38,37,37,36,35,34,33,33,34,34,34,33,32,31,30,28,28,27,26,25,24,23,22,21,20,19,17,15,12,10,7,4,0,-3,-7,-11,-14,-19,-24,-29,-30,-27,-21,-15,-9,-6,-3,-1,1,3,6,8,10,12,13,15,17,19,20,21,20,18,17,15,13,10,7,4,0,-2,-7,-33,-99,-195,-325,-479,-638,-776,-868,-880,-849,-709,-493,-236,0,172,242,268,269,254,231,205,181,154,122,88,70,62,55,50,46,42,39,35,31,28,25,20,16,11,6,1,-3,-8,-10,-13,-14,-16,-17,-18,-20,-23,-25,-28,-31,-32,-34,-36,-39,-42,-45,-48,-54,-60,-66,-72,-77,-82,-86,-91,-99,-111,-122,-132,-149,-178,-199,-210,-218,-225,-232,-238,-243,-249,-255,-261,-265,-269,-271,-273,-277,-282,-285,-279,-264,-242,-214,-191,-167,-142,-113,-80,-45,-15,6,28,48,68,94,112,126,136,142,143,144,144,145,146,148,150,151,150,147,143,139,137,134,131,127,124,121,119,115,111,107,103,99,97,95,93,90,88,86,84,81,78,76,73,71,69,67,66,64,63,63,62,62,61,61,60,59,58,57,56,54,52,52,51,51,51,51,50,50,49,48,48,47,45,45,44,45,45,47,49,51,52,54,54,55,55,55,55,55,56,57,59,61,64,67,69,70,71,71,70,67,64,59,55,51,48,45,43,42,41,41,41,41,40,39,38,37,36,35,34,33,32,31,30,30,29,28,27,25,24,23,22,22,21,21,21,21,21,21,20,20,20,20,20,20,19,19,18,18,17,17,15,13,11,9,6,4,0,-11,-21,-26,-30,-33,-37,-40,-43,-44,-42,-37,-30,-24,-21,-19,-16,-13,-11,-9,-7,-6,-5,-4,-2,0,1,2,3,3,4,6,7,9,12,15,23,27,20,0,-56,-136,-243,-373,-514,-652,-771,-844,-869,-834,-728,-532,-303,-89,74,173,218,234,234,216,165,107,55,27,15,11,8,6,3,1,0,0,-2,-5,-8,-11,-13,-15,-17,-19,-23,-26,-29,-32,-35,-38,-42,-46,-50,-55,-58,-62,-65,-68,-72,-76,-79,-83,-87,-92,-98,-104,-110,-115,-121,-126,-132,-137,-144,-151,-158,-164,-171,-179,-188,-200,-213,-228,-242,-251,-258,-264,-270,-275,-278,-281,-282,-282,-281,-280,-279,-276,-272,-266,-260,-248,-220,-189,-160,-132,-101,-74,-53,-27,-1,23,46,65,81,96,110,116,120,123,125,127,129,130,132,133,134,135,136,136,137,136,135,133,130,127,124,121,119,116,113,110,108,106,105,104,102,100,99,98,98,98,97,96,95,95,95,95,94,93,92,90,90,89,89,88,88,88,88,89,90,91,91,92,92,92,93,92,92,91,90,90,90,90,92,96,100,102,100,96,92,91,90,90,88,87,86,85,84,84,84,84,84,85,86,88,89,90,90,91,92,92,92,91,90,89,88,87,86,85,83,81,79,79,78,78,77,76,75,74,73,71,69,66,63,60,58,57,56,54,53,52,50,48,46,44,41,40,39,38,39,39,39,41,42,43,43,43,44,45,46,46,42,34,26,19,15,12,9,6,2,0,-2,-4,-5,-7,-8,-10,-10,-10,-10,-9,-8,-7,-5,-4,-3,-2,-1,0,1,2,3,4,6,7,9,11,12,14,16,20,30,35,30,17,-18,-81,-176,-301,-445,-592,-724,-825,-871,-867,-803,-655,-452,-229,-19,148,242,274,264,236,184,128,90,45,9,-2,-7,-11,-14,-17,-20,-21,-22,-24,-25,-27,-29,-30,-31,-33,-34,-37,-40,-44,-48,-52,-55,-59,-63,-68,-73,-77,-82,-86,-90,-95,-99,-104,-108,-113,-119,-127,-134,-141,-148,-155,-161,-168,-176,-184,-192,-201,-209,-218,-230,-244,-258,-270,-282,-293,-304,-313,-320,-324,-328,-331,-335,-339,-342,-341,-336,-327,-315,-299,-276,-260,-240,-217,-196,-173,-147,-120,-93,-66,-44,-26,-8,10,28,44,55,64,72,79,85,87,89,90,91,92,94,95,97,98,99,99,100,100,99,99,98,97,96,94,93,91,89,88,86,85,83,81,80,78,76,74,72,70,69,67,66,65,64,63,62,61,61,61,60,59,58,57,57,58,59,60,61,62,62,64,66,68,70,71,72,73,74,75,76,77,77,77,78,79,81,83,84,85,86,88,89,91,92,92,91,91,90,90,91,91,91,91,91,92,93,94,96,97,98,99,99,99,99,98,97,95,93,90,88,86,85,83,82,81,80,80,79,79,78,76,75,73,71,69,68,66,64,63,62,61,61,61,61,60,60,59,58,58,58,57,56,54,53,51,50,48,46,44,41,39,37,36,34,31,25,14,8,6,4,1,0,-1,-2,0,4,10,14,17,18,20,21,23,24,24,25,25,27,29,31,32,32,33,33,34,35,36,38,41,50,49,36,1,-64,-162,-288,-436,-593,-742,-856,-899,-889,-796,-614,-386,-149,51,198,262,284,269,226,187,162,134,105,75,50,32,19,0,-10,-15,-20,-24,-27,-30,-33,-36,-38,-40,-41,-42,-44,-45,-46,-48,-49,-51,-53,-57,-61,-64,-68,-72,-77,-82,-90,-105,-116,-125,-132,-137,-142,-147,-153,-158,-163,-169,-176,-184,-193,-203,-214,-228,-247,-260,-270,-279,-290,-302,-312,-321,-330,-340,-351,-359,-368,-375,-380,-380,-376,-369,-360,-343,-315,-289,-263,-238,-212,-187,-162,-136,-112,-90,-69,-49,-26,-4,10,22,35,60,75,82,87,91,95,98,100,100,100,100,100,100,101,100,100,99,99,99,100,100,98,96,93,91,90,89,87,84,82,81,81,80,80,79,77,76,75,75,75,75,74,73,73,74,75,76,77,77,78,79,80,81,81,81,82,82,82,83,83,84,84,85,86,87,89,90,91,92,92,92,92,92,93,93,94,95,96,100,104,105,102,99,98,97,96,95,95,95,95,94,94,93,93,93,92,91,90,90,89,89,89,88,86,85,83,82,81,80,78,76,75,74,74,73,72,71,71,70,70,69,69,68,68,67,66,65,63,62,61,60,59,58,56,54,52,50,47,43,40,36,33,30,28,25,23,20,19,18,17,16,14,11,6,2,1,4,11,18,22,27,31,35,38,39,38,35,32,29,25,22,17,12,8,7,8,10,13,17,23,30,30,14,-27,-101,-200,-318,-453,-598,-733,-839,-863,-846,-728,-534,-306,-80,101,210,243,253,237,210,186,151,117,79,54,36,26,18,9,1,-7,-15,-22,-27,-31,-34,-36,-38,-40,-42,-45,-47,-50,-52,-56,-60,-65,-73,-89,-94,-97,-98,-100,-101,-102,-103,-105,-107,-109,-111,-114,-117,-120,-123,-127,-134,-141,-148,-154,-162,-174,-190,-202,-213,-225,-238,-252,-266,-278,-291,-303,-316,-323,-329,-334,-337,-337,-334,-328,-322,-315,-305,-296,-287,-273,-249,-222,-194,-162,-133,-106,-76,-42,-10,14,33,53,71,86,101,114,120,124,128,132,134,136,137,139,140,141,141,141,140,139,137,136,134,132,129,126,123,121,119,118,116,114,112,109,107,106,103,101,99,97,95,94,94,94,95,95,95,96,96,96,96,95,94,93,93,92,93,93,93,94,95,96,97,98,98,99,98,98,98,97,96,96,95,95,94,94,94,94,94,94,94,94,93,92,92,91,90,88,86,85,85,86,86,87,86,86,86,85,82,79,77,77,78,80,82,85,87,89,88,85,80,75,73,72,70,68,66,65,64,63,62,60,58,56,55,54,54,54,53,53,52,52,52,50,48,44,40,36,32,29,26,24,21,20,20,21,22,22,22,22,21,21,20,20,19,18,17,18,19,20,20,20,20,21,22,24,25,25,24,23,21,20,18,16,13,11,7,3,0,-5,-42,-114,-214,-343,-487,-634,-769,-867,-882,-853,-713,-502,-257,-35,114,163,181,181,167,146,117,85,51,29,19,11,4,-3,-10,-15,-20,-27,-38,-48,-59,-63,-64,-65,-67,-70,-72,-73,-75,-76,-76,-76,-76,-76,-76,-75,-75,-75,-76,-76,-77,-79,-81,-83,-86,-88,-90,-93,-98,-110,-124,-139,-153,-165,-177,-191,-204,-214,-223,-232,-240,-249,-256,-263,-269,-276,-283,-289,-296,-300,-304,-308,-313,-318,-321,-323,-321,-317,-308,-298,-280,-244,-212,-188,-167,-140,-107,-74,-40,-15,0,15,29,47,66,75,78,79,80,81,82,83,84,84,85,86,86,86,86,86,86,86,86,85,85,85,85,85,85,84,84,83,83,83,83,82,81,79,78,77,76,74,73,71,69,69,69,69,69,69,69,69,70,70,71,71,72,74,76,79,82,85,87,89,92,94,98,101,103,104,105,106,107,108,108,109,108,108,107,107,107,107,107,106,107,107,107,106,106,105,104,102,101,99,98,97,96,94,93,91,91,91,91,90,90,88,87,85,84,83,81,79,77,75,74,73,72,70,67,64,61,60,61,62,62,63,64,65,67,70,71,73,73,73,73,72,68,62,56,49,42,35,26,17,10,6,4,2,0,-5,-8,0,13,19,24,28,31,34,36,38,40,41,42,41,40,39,39,39,39,38,37,36,34,33,32,31,30,28,26,22,16,6,-26,-91,-186,-315,-471,-631,-771,-876,-901,-882,-758,-562,-330,-104,78,197,253,272,263,234,187,125,55,23,11,11,18,25,30,32,29,17,2,-9,-22,-32,-38,-43,-47,-50,-52,-53,-54,-56,-57,-59,-61,-64,-67,-71,-74,-77,-79,-81,-83,-85,-89,-92,-95,-99,-104,-108,-113,-117,-122,-126,-131,-137,-146,-157,-167,-177,-187,-197,-209,-220,-232,-245,-258,-271,-283,-295,-308,-319,-329,-336,-343,-349,-351,-349,-342,-333,-316,-286,-253,-220,-187,-161,-140,-117,-94,-66,-40,-21,-5,11,27,44,57,69,83,98,109,118,125,130,132,132,132,132,132,131,131,130,130,129,126,121,115,110,107,104,101,99,97,97,96,95,94,93,91,90,90,89,88,88,87,87,86,86,86,85,85,85,85,85,85,85,84,84,83,81,80,79,79,78,77,77,76,76,77,77,78,77,77,76,75,75,75,74,74,73,73,75,77,80,82,84,85,87,89,92,94,95,94,90,85,81,77,75,72,69,66,64,62,60,58,56,54,52,52,52,53,53,52,51,50,50,50,49,47,44,42,40,40,40,40,39,38,38,38,38,38,37,36,35,36,38,40,41,39,36,35,35,35,34,32,29,26,23,19,16,12,8,4,0,-2,-6,-12,-18,-23,-24,-22,-18,-13,-9,-6,-4,0,3,7,10,13,15,18,20,22,23,24,25,24,24,25,27,29,31,34,40,43,38,23,-18,-93,-194,-321,-466,-613,-746,-850,-903,-900,-834,-674,-454,-209,16,180,243,264,249,203,143,92,56,32,21,13,8,3,-2,-6,-9,-12,-15,-19,-22,-25,-27,-29,-31,-35,-39,-43,-47,-51,-54,-57,-61,-64,-68,-72,-75,-79,-84,-89,-94,-99,-104,-110,-118,-126,-132,-137,-141,-145,-149,-153,-157,-161,-164,-167,-170,-174,-181,-190,-206,-226,-246,-266,-281,-295,-306,-316,-325,-332,-338,-343,-346,-346,-342,-335,-325,-314,-295,-281,-262,-234,-208,-188,-170,-145,-116,-87,-58,-29,2,27,42,58,73,87,100,110,117,122,125,126,128,129,130,131,131,132,132,132,132,132,131,131,131,131,130,129,127,125,122,118,114,110,106,103,101,99,98,96,95,94,93,92,91,89,87,84,82,80,79,77,76,75,75,75,75,76,77,77,76,76,76,77,76,76,75,74,73,74,75,76,77,78,78,79,80,82,82,81,80,78,77,76,76,75,73,72,72,72,72,70,68,66,64,64,66,70,74,77,80,84,90,97,102,104,101,96,89,84,82,80,77,75,74,73,72,71,70,69,68,67,67,67,67,67,66,66,66,65,64,62,61,60,59,58,57,56,55,54,54,52,50,47,44,41,41,42,43,44,45,47,48,51,53,54,53,46,36,25,16,4,-6,-11,-10,-9,-7,-6,-5,-4,-4,-4,-4,-4,-4,-3,-2,-1,0,1,3,4,6,7,8,9,9,9,10,10,11,12,13,17,21,20,12,-2,-47,-118,-219,-350,-501,-656,-793,-878,-906,-872,-768,-574,-345,-120,67,199,251,269,252,200,141,87,39,26,18,13,8,3,-1,-6,-10,-14,-18,-20,-23,-24,-25,-27,-30,-33,-37,-40,-43,-47,-51,-54,-58,-61,-63,-66,-69,-72,-75,-78,-81,-84,-87,-90,-94,-97,-101,-105,-111,-122,-133,-143,-152,-163,-175,-186,-196,-205,-211,-217,-224,-232,-241,-251,-264,-280,-294,-306,-313,-319,-325,-330,-333,-334,-333,-331,-327,-321,-314,-300,-273,-249,-220,-193,-172,-150,-123,-86,-52,-29,-12,4,22,47,66,78,88,95,101,106,109,110,111,113,114,115,116,117,117,117,118,119,120,119,119,118,117,116,115,114,111,109,105,103,100,98,95,93,91,89,88,87,86,85,84,82,81,80,79,78,76,75,73,72,71,71,71,71,72,73,74,75,76,77,78,78,78,78,78,77,75,74,73,72,73,74,74,75,76,76,77,79,78,77,75,73,73,74,77,80,82,84,86,89,92,94,95,93,90,86,83,81,79,77,75,72,70,70,70,70,70,69,68,67,67,68,68,68,66,65,63,62,62,61,59,57,55,53,52,52,52,52,51,50,49,48,47,46,44,42,40,38,37,36,35,34,34,33,33,32,31,30,27,24,21,18,15,12,8,5,2,-1,-5,-9,-14,-19,-23,-26,-29,-29,-29,-27,-24,-20,-16,-11,-7,-4,0,7,14,21,25,26,25,23,21,19,17,13,8,5,3,3,6,11,17,27,40,30,-2,-65,-158,-291,-457,-637,-800,-919,-953,-940,-835,-655,-431,-187,37,201,281,307,299,272,221,169,117,89,72,62,50,35,19,3,-5,-9,-12,-13,-14,-15,-16,-17,-18,-20,-23,-26,-28,-31,-34,-37,-40,-43,-47,-51,-56,-61,-65,-70,-75,-80,-84,-89,-93,-98,-103,-111,-119,-126,-132,-137,-142,-148,-155,-163,-171,-179,-186,-196,-207,-221,-237,-250,-261,-271,-282,-293,-303,-310,-316,-323,-329,-333,-335,-334,-330,-324,-317,-308,-290,-258,-232,-204,-177,-146,-113,-81,-48,-17,7,26,43,60,77,96,104,108,112,117,120,124,126,128,130,131,133,134,134,134,133,131,130,128,125,123,119,116,113,111,108,106,103,101,98,96,94,92,89,87,85,83,82,81,81,81,81,80,80,80,80,80,79,78,77,76,75,74,74,74,74,74,74,75,74,73,72,70,69,67,64,63,61,61,61,63,65,67,69,70,71,72,73,74,74,74,74,74,74,75,77,78,79,80,81,82,81,80,77,74,71,68,66,64,63,61,59,57,56,55,55,54,53,52,52,51,51,50,48,47,46,45,43,42,40,39,38,37,36,35,34,33,32,30,29,28,27,26,26,25,25,24,23,21,20,19,16,14,11,9,7,4,2,0,-3,-6,-10,-13,-17,-22,-28,-34,-38,-42,-44,-46,-46,-46,-45,-43,-40,-37,-35,-33,-32,-30,-27,-22,-19,-17,-17,-19,-21,-23,-26,-29,-34,-39,-43,-45,-44,-41,-38,-33,-27,-18,-18,-30,-66,-115,-194,-305,-441,-587,-719,-814,-842,-829,-737,-577,-386,-196,-36,82,164,215,233,234,216,165,98,34,3,-9,-15,-20,-24,-28,-32,-37,-41,-44,-47,-50,-52,-53,-53,-53,-54,-54,-55,-56,-57,-59,-61,-63,-65,-67,-69,-71,-73,-75,-78,-81,-83,-86,-90,-95,-100,-106,-110,-115,-119,-122,-125,-127,-129,-131,-133,-137,-143,-151,-160,-172,-193,-221,-241,-257,-271,-279,-284,-289,-292,-294,-294,-292,-287,-281,-274,-266,-253,-241,-230,-213,-189,-165,-143,-122,-99,-75,-48,-19,8,34,58,79,105,125,138,145,147,148,149,150,150,151,151,152,153,153,152,149,146,144,141,139,136,134,132,131,129,127,125,122,118,115,112,109,107,105,103,102,102,102,101,101,100,99,97,96,95,94,93,93,93,93,93,93,94,95,96,96,97,97,97,96,96,95,95,94,94,93,93,92,93,93,93,93,94,94,95,95,95,96,95,95,94,94,92,91,90,90,89,89,88,87,85,84,82,81,79,76,74,73,71,69,66,64,62,60,59,58,57,55,54,54,54,54,55,55,55,54,53,51,50,49,47,46,45,44,44,44,44,45,45,44,44,43,41,39,36,33,29,26,24,22,19,17,14,12,10,8,6,4,1,-1,-4,-7,-8,-9,-9,-8,-6,-3,0,2,5,8,10,13,16,19,23,25,27,28,29,29,28,27,25,22,18,12,6,-1,-35,-87,-158,-253,-375,-516,-658,-778,-834,-829,-744,-578,-363,-134,49,167,203,215,198,170,147,120,83,37,15,6,2,0,-2,-4,-7,-9,-12,-15,-18,-21,-23,-24,-27,-30,-33,-36,-39,-42,-45,-49,-52,-55,-57,-59,-61,-63,-66,-69,-71,-74,-76,-79,-82,-85,-87,-89,-91,-92,-94,-98,-102,-109,-125,-142,-157,-170,-182,-193,-204,-215,-226,-237,-249,-261,-268,-273,-276,-278,-280,-281,-283,-283,-283,-282,-280,-277,-272,-266,-253,-230,-209,-185,-159,-131,-101,-71,-42,-16,6,28,48,72,82,86,89,92,94,96,97,98,99,100,100,100,100,100,100,99,99,98,98,96,95,94,92,91,89,87,86,85,84,83,82,81,81,81,80,77,74,71,70,70,71,73,76,79,83,91,92,86,83,80,78,75,74,73,74,75,77,80,84,91,91,81,76,72,69,66,64,63,64,66,68,70,72,73,74,76,77,79,80,81,81,82,83,84,85,84,83,81,80,79,78,77,76,74,72,70,69,68,66,64,61,59,57,55,54,53,52,50,49,48,47,45,43,41,39,36,35,34,33,32,31,31,32,32,33,33,33,33,32,32,31,30,29,28,28,27,26,24,22,21,20,18,15,10,0,-6,-11,-14,-16,-19,-22,-24,-24,-21,-16,-9,1,17,27,34,34,27,23,21,20,19,18,17,15,14,12,11,10,9,8,7,5,1,-12,-54,-121,-219,-347,-498,-654,-789,-875,-884,-839,-693,-491,-266,-54,109,210,240,236,186,122,71,44,30,23,18,11,3,-3,-8,-11,-15,-18,-20,-23,-25,-27,-30,-34,-37,-40,-42,-43,-45,-47,-49,-51,-53,-56,-59,-62,-65,-68,-70,-72,-74,-76,-79,-82,-87,-96,-105,-113,-122,-131,-140,-148,-154,-159,-163,-167,-171,-176,-181,-187,-197,-212,-225,-239,-252,-267,-274,-279,-283,-286,-289,-291,-292,-292,-291,-289,-286,-282,-277,-271,-258,-231,-206,-179,-149,-118,-86,-56,-27,0,20,36,51,63,72,80,88,94,96,98,99,101,102,103,104,104,105,106,107,108,108,107,107,106,106,105,105,104,103,102,101,101,101,100,100,99,99,99,98,98,97,96,95,95,95,96,96,97,97,97,96,95,94,94,93,91,90,88,87,87,86,86,84,81,78,76,76,77,80,84,88,92,95,99,104,107,110,111,110,108,104,100,97,94,90,86,81,78,76,76,77,78,78,79,79,81,83,84,85,82,77,72,68,66,65,62,60,58,56,55,54,54,52,51,51,52,52,53,54,54,54,54,55,56,56,56,55,55,55,55,54,54,53,53,52,50,49,46,44,41,39,34,22,11,2,-3,-7,-10,-13,-15,-16,-16,-13,-9,-4,0,4,6,9,11,14,17,20,23,26,29,31,31,31,30,29,27,25,21,17,11,5,-2,-36,-106,-208,-342,-499,-662,-805,-898,-909,-868,-707,-479,-231,-1,165,240,265,252,212,153,105,65,39,21,12,4,-3,-11,-16,-21,-25,-29,-32,-35,-37,-39,-41,-42,-43,-43,-43,-43,-43,-43,-45,-46,-48,-49,-52,-54,-57,-60,-62,-65,-67,-71,-77,-84,-92,-99,-105,-112,-118,-124,-130,-136,-141,-146,-153,-161,-174,-186,-199,-210,-220,-230,-241,-253,-263,-273,-282,-287,-290,-293,-296,-299,-302,-303,-304,-301,-296,-289,-277,-255,-233,-211,-188,-163,-135,-107,-78,-49,-26,-8,6,24,47,66,80,94,99,102,105,106,108,109,111,112,113,113,114,114,114,114,114,113,111,109,108,106,105,103,101,99,98,96,95,94,93,92,90,90,89,88,86,85,84,83,82,81,80,79,79,79,79,79,79,78,78,78,79,80,80,80,80,80,81,82,82,82,82,82,81,82,82,81,81,80,79,79,79,79,79,80,80,79,79,78,77,77,78,78,78,79,79,80,81,82,82,79,74,69,67,65,63,62,60,58,58,58,58,58,57,57,56,55,54,55,54,54,53,52,51,52,53,54,54,54,53,52,51,48,46,45,47,49,51,56,55,45,36,28,18,6,-7,-22,-26,-31,-36,-25,-14,-8,-2,3,10,15,19,23,27,31,33,35,36,38,42,48,52,51,47,44,42,41,41,40,39,36,32,27,20,-4,-77,-177,-301,-445,-593,-731,-839,-879,-871,-784,-615,-396,-160,47,209,309,340,338,297,234,166,99,45,20,14,10,7,4,0,-4,-9,-12,-16,-19,-21,-23,-25,-26,-28,-29,-31,-33,-36,-39,-41,-43,-44,-46,-47,-49,-51,-54,-58,-67,-76,-86,-94,-102,-108,-112,-115,-117,-120,-122,-124,-126,-130,-135,-142,-156,-179,-197,-211,-227,-244,-260,-275,-282,-287,-291,-295,-297,-298,-299,-299,-299,-298,-296,-294,-291,-287,-280,-263,-243,-222,-204,-189,-171,-147,-116,-84,-54,-25,2,25,41,56,67,74,80,87,93,98,102,105,108,112,114,116,116,116,114,112,110,109,108,107,106,105,104,102,101,100,100,99,98,98,97,97,96,95,94,92,91,89,88,87,87,86,85,84,84,85,85,85,85,85,85,86,87,89,90,92,93,94,96,97,98,98,97,97,97,97,97,97,97,97,98,98,99,99,99,98,97,96,96,95,95,93,92,90,89,88,87,85,83,81,79,78,77,75,74,72,70,68,67,66,65,65,64,64,63,64,64,63,63,61,59,57,55,54,52,51,49,47,46,44,42,38,33,27,21,16,13,10,7,5,4,3,2,1,0,-2,-4,0,7,15,19,23,25,28,30,33,35,38,40,43,45,47,49,50,51,53,55,57,62,71,75,71,62,35,-32,-130,-261,-420,-593,-760,-897,-949,-937,-822,-622,-377,-124,88,228,291,312,304,278,228,173,116,65,31,15,8,3,0,-4,-7,-9,-11,-13,-15,-17,-18,-18,-19,-19,-20,-22,-25,-30,-42,-59,-68,-74,-78,-82,-85,-87,-90,-92,-94,-96,-99,-102,-104,-107,-110,-113,-117,-121,-126,-132,-139,-151,-170,-183,-195,-204,-216,-231,-242,-250,-258,-265,-272,-278,-284,-290,-298,-310,-319,-325,-330,-335,-341,-344,-339,-326,-305,-279,-258,-235,-211,-186,-159,-134,-109,-83,-56,-30,-2,21,36,45,55,66,74,81,88,94,101,107,110,114,117,120,122,123,121,119,116,114,112,112,112,111,109,108,107,105,104,103,102,102,102,102,103,103,104,104,104,105,105,104,103,102,101,101,101,101,102,102,103,104,105,106,107,107,106,106,106,106,106,106,106,106,108,110,112,113,112,109,106,103,101,99,96,93,90,88,88,88,88,87,87,87,88,89,90,90,90,92,96,97,90,85,82,80,78,77,76,74,71,67,64,61,59,57,55,52,49,46,43,43,43,44,44,45,46,48,50,52,53,50,44,37,29,18,11,7,3,0,-1,-2,-3,-3,-2,0,5,11,19,32,40,44,47,50,52,52,51,49,46,43,39,33,29,28,35,44,54,67,72,68,57,27,-43,-146,-280,-434,-592,-733,-838,-876,-865,-770,-602,-386,-152,60,218,292,316,304,267,224,182,134,91,50,27,15,9,4,0,-5,-12,-18,-24,-29,-34,-38,-42,-45,-48,-50,-52,-55,-58,-60,-63,-65,-67,-69,-71,-74,-76,-79,-83,-87,-91,-97,-103,-110,-116,-121,-126,-132,-140,-150,-161,-172,-183,-192,-199,-207,-215,-225,-238,-251,-264,-274,-282,-291,-302,-316,-325,-331,-336,-340,-341,-341,-340,-337,-333,-327,-316,-298,-280,-260,-237,-209,-177,-147,-118,-90,-63,-37,-11,16,35,46,56,69,82,93,104,113,118,118,117,115,114,113,112,111,111,110,110,110,111,111,110,110,109,108,106,105,103,101,99,98,97,96,95,93,93,92,92,92,92,92,92,91,90,89,88,87,87,87,86,86,85,85,84,84,84,84,84,83,83,83,82,82,82,81,81,80,79,78,77,76,76,76,76,77,77,77,78,78,79,78,77,76,74,72,71,70,69,68,69,69,70,71,71,71,71,71,70,69,69,67,65,64,62,61,60,59,57,54,52,49,47,44,41,36,32,28,25,24,23,24,25,28,31,34,37,39,40,42,45,47,50,53,55,57,60,62,65,67,68,68,69,70,71,73,76,81,91,96,92,76,32,-36,-138,-273,-432,-598,-744,-840,-854,-830,-700,-498,-260,-24,163,278,306,303,259,205,173,153,141,130,118,106,82,49,23,6,-6,-12,-15,-18,-20,-22,-25,-27,-30,-34,-37,-41,-44,-47,-50,-52,-55,-59,-63,-68,-72,-77,-81,-86,-90,-94,-99,-104,-110,-118,-128,-136,-144,-152,-162,-172,-182,-191,-199,-206,-212,-219,-228,-238,-249,-260,-272,-284,-296,-306,-312,-318,-323,-328,-331,-333,-334,-332,-329,-325,-319,-311,-295,-268,-243,-219,-195,-168,-139,-109,-80,-49,-17,11,39,67,92,110,118,120,121,122,122,123,124,125,126,126,127,127,127,127,127,126,125,124,124,123,123,123,122,121,120,119,118,117,116,115,115,114,113,112,111,110,109,108,106,105,104,103,102,101,100,98,97,96,96,95,95,95,95,95,94,93,93,93,92,91,91,90,90,89,89,88,88,86,85,84,83,82,82,81,81,80,80,79,79,79,79,79,78,78,77,77,77,77,77,77,76,76,76,76,75,73,70,67,65,62,59,57,54,51,48,44,40,36,32,28,25,23,21,19,18,17,15,13,8,3,2,8,17,28,42,48,51,54,57,57,54,51,50,49,48,48,48,47,45,43,41,40,39,38,37,34,30,25,1,-69,-176,-315,-476,-638,-777,-868,-881,-852,-713,-508,-271,-39,142,259,307,310,279,226,184,142,117,91,68,49,27,9,-2,-11,-18,-22,-24,-27,-29,-31,-33,-36,-40,-44,-48,-52,-57,-60,-63,-66,-69,-71,-74,-77,-80,-83,-86,-89,-91,-92,-94,-95,-96,-98,-100,-103,-107,-118,-128,-138,-150,-164,-179,-191,-200,-208,-217,-225,-234,-244,-254,-263,-274,-287,-303,-312,-318,-323,-327,-329,-330,-329,-327,-323,-317,-310,-296,-269,-243,-219,-178,-133,-105,-73,-44,-18,8,27,39,52,63,75,87,98,109,115,118,122,125,128,130,133,134,135,136,136,135,134,133,131,130,129,128,126,124,122,120,118,117,115,113,110,108,105,104,103,103,102,102,103,104,106,107,108,108,107,107,108,109,110,111,111,112,115,117,118,118,115,111,106,102,101,99,97,94,92,92,91,92,92,92,91,90,90,90,89,87,86,85,85,85,85,85,85,85,86,86,86,86,84,82,81,79,78,76,74,73,72,72,71,71,71,69,68,67,65,63,61,58,56,53,50,47,46,44,41,38,34,27,13,5,1,-2,-5,-7,-6,-2,4,12,24,39,43,44,45,45,46,47,48,48,49,50,51,52,53,53,54,55,57,60,67,67,58,34,-7,-75,-171,-296,-444,-599,-738,-848,-886,-870,-752,-551,-314,-81,111,239,293,311,293,235,169,101,39,22,18,17,16,15,11,6,0,-4,-8,-12,-15,-17,-18,-21,-24,-28,-32,-37,-40,-44,-47,-50,-54,-58,-62,-67,-71,-76,-80,-84,-86,-88,-90,-91,-92,-94,-98,-105,-113,-123,-130,-135,-140,-146,-153,-161,-169,-177,-187,-196,-205,-212,-219,-234,-261,-279,-289,-297,-301,-303,-305,-307,-310,-313,-313,-306,-296,-284,-267,-247,-220,-191,-167,-140,-113,-83,-49,-18,1,14,28,41,62,87,97,101,105,109,111,113,114,115,116,116,116,116,114,112,111,110,109,108,105,102,99,97,95,93,91,88,85,82,81,80,80,80,79,78,78,78,78,79,79,78,77,75,75,75,76,77,77,78,79,80,82,82,82,81,80,79,79,82,86,89,91,94,97,99,101,101,98,94,89,85,83,82,80,79,77,75,74,73,73,72,71,71,70,70,71,71,71,71,71,71,70,69,67,65,63,60,58,57,56,54,53,53,52,52,52,52,51,50,49,47,46,44,43,41,40,38,37,36,35,33,30,27,23,18,12,6,0,-4,-9,-12,-14,-16,-18,-21,-23,-24,-25,-25,-24,-21,-18,-13,-9,-4,-1,2,6,9,13,16,18,19,19,19,17,16,14,12,9,5,2,4,11,18,25,23,6,-39,-108,-205,-334,-481,-631,-762,-862,-894,-881,-783,-611,-388,-165,29,161,211,227,204,165,126,89,56,36,24,11,0,-8,-14,-19,-23,-26,-30,-34,-38,-42,-46,-49,-53,-56,-60,-63,-67,-71,-75,-78,-83,-87,-92,-95,-99,-102,-106,-109,-113,-117,-120,-124,-128,-131,-135,-138,-140,-143,-147,-152,-161,-171,-180,-189,-197,-204,-212,-221,-229,-239,-252,-270,-287,-302,-314,-325,-334,-340,-346,-351,-354,-356,-354,-350,-343,-333,-316,-283,-249,-218,-190,-162,-136,-110,-83,-55,-35,-22,-9,4,25,55,74,84,92,97,101,104,106,107,109,110,110,111,112,112,113,114,114,113,111,109,106,103,100,97,94,90,87,85,84,83,81,79,78,76,75,74,73,72,70,69,68,67,67,68,68,68,69,70,71,72,73,72,72,72,72,73,73,74,74,74,74,75,77,78,78,78,78,77,77,77,77,77,76,75,75,75,76,77,77,77,77,77,77,78,78,78,77,77,78,79,81,82,82,83,84,85,87,88,89,89,89,89,89,90,92,93,94,94,94,95,96,97,96,95,93,91,89,86,84,81,78,76,74,74,73,72,71,68,66,64,63,63,62,61,61,61,62,64,66,67,67,67,66,66,66,65,64,63,62,61,60,58,57,56,53,50,47,39,21,15,12,8,5,3,3,8,15,23,27,32,36,40,43,46,47,48,47,48,49,50,50,49,48,47,46,46,45,44,42,38,33,26,2,-66,-172,-307,-460,-618,-763,-880,-919,-905,-791,-592,-349,-103,94,225,265,279,261,206,155,107,56,16,7,2,-1,-4,-8,-13,-17,-21,-25,-28,-32,-35,-37,-39,-41,-43,-45,-49,-53,-57,-61,-65,-67,-70,-73,-76,-79,-81,-84,-88,-93,-98,-103,-108,-113,-118,-124,-131,-140,-148,-157,-164,-171,-178,-186,-194,-203,-212,-221,-233,-248,-262,-275,-283,-289,-294,-298,-301,-304,-305,-306,-307,-307,-308,-309,-311,-313,-312,-298,-279,-254,-228,-199,-167,-132,-93,-58,-25,5,26,43,66,77,84,89,93,97,101,104,108,111,114,116,119,121,123,125,128,130,132,135,137,139,140,140,139,138,136,133,131,127,124,120,118,115,112,108,103,98,94,90,86,81,76,71,67,63,60,55,49,43,39,39,43,49,55,59,60,61,63,65,68,70,72,73,75,77,79,81,82,83,83,82,83,83,84,83,83,84,84,85,86,87,87,86,85,85,84,84,83,82,81,80,80,81,81,80,79,79,79,79,79,78,77,77,77,78,79,79,78,77,76,76,75,74,72,70,68,68,68,68,67,66,64,62,59,55,49,44,39,35,32,30,28,26,24,23,22,21,20,18,17,16,15,15,15,14,14,13,13,13,12,11,10,8,7,6,4,2,0,-2,-4,-7,-11,-16,-22,-27,-31,-34,-37,-39,-41,-43,-45,-47,-48,-50,-51,-50,-49,-45,-42,-38,-36,-34,-31,-28,-25,-21,-19,-16,-14,-12,-11,-9,-7,-6,-4,0,6,13,13,7,-5,-42,-105,-199,-321,-462,-614,-760,-872,-921,-915,-833,-663,-446,-214,-7,149,207,225,207,176,148,131,117,99,75,44,17,-2,-15,-20,-23,-25,-27,-28,-28,-28,-29,-29,-30,-31,-31,-33,-35,-37,-40,-43,-45,-48,-50,-53,-57,-60,-65,-71,-79,-86,-92,-98,-103,-108,-113,-118,-123,-128,-133,-137,-141,-146,-152,-158,-168,-178,-186,-194,-209,-235,-254,-265,-274,-282,-290,-299,-310,-316,-320,-323,-325,-328,-329,-326,-319,-308,-290,-263,-241,-217,-191,-168,-149,-127,-103,-76,-45,-16,4,22,41,61,80,92,100,105,110,116,123,128,132,135,138,140,142,144,145,147,148,148,148,147,145,143,141,139,137,134,132,129,126,122,119,115,112,109,106,102,99,96,94,93,92,90,88,87,85,84,83,81,80,79,79,79,80,81,81,80,80,79,79,77,76,75,74,73,73,73,74,74,74,74,73,70,67,65,66,72,77,81,85,89,93,94,93,90,87,83,82,80,78,77,75,74,73,73,73,73,74,74,74,75,75,74,74,74,74,73,72,71,70,68,67,66,65,63,62,61,60,60,59,57,55,54,53,52,51,50,48,47,46,45,44,44,43,42,42,42,41,40,39,38,36,35,34,33,32,31,30,29,28,27,26,25,23,21,19,16,13,9,6,2,-5,-13,-19,-22,-24,-25,-27,-31,-33,-33,-26,-18,-14,-12,-10,-8,-6,-4,-3,-2,-1,-1,0,0,2,3,3,3,3,3,3,3,4,6,8,12,20,25,18,0,-55,-146,-269,-418,-576,-722,-834,-892,-893,-838,-695,-495,-255,-22,155,268,308,305,255,192,138,87,68,61,57,53,46,36,18,-9,-23,-27,-31,-34,-35,-36,-37,-39,-40,-42,-44,-46,-49,-50,-52,-53,-54,-55,-57,-60,-63,-67,-73,-79,-86,-92,-98,-104,-109,-114,-119,-124,-128,-132,-136,-139,-143,-149,-157,-165,-173,-182,-193,-209,-227,-251,-277,-291,-299,-305,-309,-312,-315,-318,-320,-323,-325,-325,-324,-321,-316,-308,-295,-270,-249,-232,-213,-189,-159,-127,-97,-69,-41,-13,15,39,57,81,93,100,106,111,116,119,122,124,124,124,124,124,125,126,126,125,124,123,122,122,122,122,119,114,109,105,104,103,101,99,96,94,93,92,91,90,89,89,89,90,91,91,90,89,88,88,88,88,87,85,84,83,83,83,84,84,84,85,85,86,86,86,86,85,85,86,87,87,88,88,89,90,91,92,93,94,94,94,93,93,92,90,89,88,87,86,86,85,84,84,83,83,83,83,82,81,81,80,79,78,76,74,71,68,66,65,64,64,63,63,63,63,62,60,59,58,58,57,57,55,54,53,52,52,51,50,49,47,46,45,45,44,42,41,39,38,37,35,33,30,27,24,20,17,15,13,11,10,8,7,5,4,2,0,-1,-4,-6,-6,-5,-2,0,4,8,11,14,18,22,26,28,29,28,27,24,20,16,11,1,-3,0,11,22,34,34,19,-18,-76,-164,-285,-429,-574,-694,-772,-799,-780,-720,-583,-399,-185,10,154,238,265,254,224,172,140,112,93,76,55,20,0,-9,-16,-22,-27,-30,-33,-36,-39,-40,-42,-43,-43,-43,-43,-42,-42,-43,-45,-47,-51,-54,-58,-62,-66,-70,-75,-80,-84,-88,-92,-97,-102,-108,-114,-119,-124,-128,-131,-135,-139,-145,-153,-167,-179,-190,-199,-208,-217,-230,-244,-255,-264,-272,-279,-284,-288,-291,-295,-298,-303,-307,-310,-312,-310,-304,-296,-284,-265,-227,-188,-148,-108,-69,-42,-24,-6,11,29,47,61,72,81,90,98,107,115,118,121,123,125,127,129,131,132,132,133,132,131,128,124,120,116,111,107,104,102,99,97,95,93,93,92,92,91,90,89,88,88,88,87,87,85,84,83,83,84,85,85,86,86,87,88,89,90,90,90,90,90,91,92,92,92,93,94,96,98,99,100,100,100,100,100,99,98,96,95,94,94,94,93,92,91,90,89,87,85,82,79,77,76,74,73,70,67,65,64,64,64,63,61,59,58,56,55,53,52,50,49,49,49,49,49,49,49,48,48,47,45,44,42,40,37,35,33,31,29,27,25,23,22,20,19,18,16,13,10,7,4,2,0,0,0,0,1,3,6,8,10,12,13,14,15,16,17,18,20,22,24,27,29,31,33,34,34,33,32,29,25,20,13,-8,-67,-151,-262,-395,-538,-668,-766,-797,-788,-708,-558,-372,-167,18,162,250,280,271,246,188,129,77,43,22,11,3,-3,-11,-19,-26,-30,-34,-37,-39,-41,-43,-45,-47,-50,-52,-54,-56,-58,-60,-62,-63,-64,-65,-66,-69,-71,-74,-77,-80,-82,-85,-89,-92,-95,-98,-102,-106,-112,-123,-134,-144,-154,-163,-171,-180,-189,-198,-207,-216,-225,-234,-244,-253,-263,-274,-288,-301,-314,-323,-331,-337,-341,-341,-338,-331,-321,-304,-277,-251,-230,-200,-161,-117,-75,-48,-29,-16,-5,3,17,38,52,59,66,74,83,99,120,128,133,137,140,141,141,137,132,126,122,120,118,115,111,109,107,107,106,106,105,104,102,101,101,100,99,98,96,95,93,92,92,91,91,90,89,89,88,86,84,81,79,78,78,79,82,84,86,88,89,91,93,96,98,99,100,99,99,98,97,96,94,92,91,90,89,88,88,88,87,87,86,85,85,84,84,84,85,86,88,90,92,93,96,98,99,99,96,90,82,74,66,54,45,42,40,38,35,33,33,39,46,51,58,64,67,64,57,50,47,44,42,40,38,37,35,33,31,29,27,26,25,24,23,22,21,20,19,17,13,5,0,-5,-9,-13,-20,-18,-3,4,9,14,18,20,22,23,24,25,25,24,23,21,20,19,17,15,12,9,9,10,13,17,22,28,27,13,-24,-81,-158,-260,-387,-526,-659,-766,-806,-801,-730,-580,-389,-187,-2,133,212,238,236,201,161,117,75,35,11,-1,-7,-11,-15,-18,-20,-22,-24,-25,-27,-28,-30,-32,-34,-36,-38,-41,-43,-47,-50,-53,-56,-59,-61,-63,-65,-67,-68,-69,-71,-74,-77,-80,-82,-84,-86,-88,-89,-91,-94,-97,-103,-114,-124,-131,-143,-162,-185,-206,-218,-225,-233,-244,-254,-263,-270,-277,-282,-285,-288,-289,-292,-294,-297,-299,-297,-291,-282,-272,-257,-241,-218,-190,-159,-129,-100,-70,-40,-13,12,38,57,68,78,89,94,97,100,102,105,107,108,109,109,109,107,106,105,104,102,100,99,98,97,97,97,96,96,95,95,94,93,91,91,90,90,89,88,87,86,83,77,74,78,84,85,86,87,89,90,91,91,92,93,95,96,97,97,97,97,97,97,98,98,97,97,96,96,95,94,92,90,89,88,88,87,87,87,86,86,85,85,84,83,81,79,79,79,79,81,82,83,84,85,87,89,90,90,88,84,79,75,73,70,67,64,62,60,59,59,58,57,55,54,55,56,57,56,55,54,53,53,53,53,52,51,49,49,48,46,43,38,32,27,23,17,11,6,3,1,0,0,-1,-3,-4,-5,-6,-5,-2,0,3,5,7,9,11,12,14,16,18,20,22,24,26,27,29,31,33,36,39,45,55,61,56,44,10,-42,-119,-220,-345,-485,-628,-754,-851,-877,-862,-758,-574,-345,-114,84,227,305,331,313,258,185,114,54,23,10,5,2,0,-3,-6,-9,-11,-14,-17,-20,-23,-25,-28,-31,-35,-41,-48,-52,-54,-56,-58,-59,-60,-62,-63,-66,-68,-72,-77,-82,-87,-91,-97,-104,-110,-114,-118,-123,-127,-131,-136,-141,-148,-157,-168,-184,-206,-221,-231,-239,-245,-253,-261,-270,-279,-289,-299,-308,-318,-327,-337,-344,-345,-340,-333,-325,-316,-305,-290,-267,-239,-213,-188,-165,-136,-103,-67,-35,-11,3,16,31,57,72,81,89,95,101,104,107,108,110,111,112,113,114,114,115,115,115,115,115,115,114,114,113,112,111,110,109,107,104,101,97,94,92,91,88,84,80,76,74,75,77,78,79,79,80,81,83,85,86,85,83,81,80,79,78,75,72,70,69,70,71,72,73,76,80,84,85,81,75,72,70,68,66,65,62,60,57,55,54,54,53,54,54,55,56,57,58,58,57,56,55,54,53,54,54,55,56,57,59,61,62,61,58,55,51,49,47,44,42,39,37,36,36,36,36,37,38,40,41,43,45,47,40,27,20,15,9,4,0,-2,-4,-5,-6,-6,-5,-3,0,1,4,6,8,10,13,15,18,19,20,22,25,28,31,34,36,37,37,38,39,41,43,45,48,53,63,63,43,-12,-101,-222,-365,-512,-647,-754,-809,-810,-761,-634,-456,-263,-46,133,227,257,236,174,84
