51,56,59,63,65,62,52,38,18,-10,-24,-42,-65,-88,-111,-135,-163,-194,-225,-251,-270,-284,-296,-305,-316,-332,-358,-389,-416,-447,-481,-514,-546,-579,-614,-646,-669,-686,-702,-721,-748,-779,-816,-859,-896,-929,-958,-1000,-1047,-1093,-1125,-1151,-1168,-1175,-1169,-1154,-1131,-1100,-1049,-998,-947,-901,-872,-839,-811,-774,-711,-625,-539,-456,-377,-313,-273,-260,-275,-320,-401,-494,-595,-688,-759,-814,-850,-879,-898,-907,-908,-909,-909,-909,-909,-908,-900,-889,-876,-858,-835,-822,-814,-806,-800,-796,-796,-796,-796,-797,-800,-802,-806,-811,-794,-767,-734,-705,-684,-672,-659,-628,-598,-583,-572,-562,-554,-545,-525,-491,-452,-421,-396,-368,-336,-302,-262,-227,-201,-183,-169,-151,-130,-110,-85,-57,-28,-3,14,32,49,67,88,104,115,125,133,140,153,178,203,221,236,251,267,290,323,364,395,415,426,433,445,463,476,484,487,479,464,449,434,419,405,386,367,359,351,344,365,399,429,442,450,456,458,458,451,441,428,413,392,382,376,372,368,364,362,362,366,372,382,400,431,482,569,667,755,840,929,1024,1102,1130,1138,1113,1038,930,822,727,640,558,489,461,450,452,475,509,540,551,556,561,565,567,567,565,561,555,548,541,532,522,511,498,483,467,453,442,431,420,408,392,376,360,347,335,325,315,306,295,284,275,268,263,259,255,253,250,249,248,246,242,238,232,223,197,149,93,37,-13,-65,-119,-175,-229,-258,-275,-286,-297,-308,-327,-356,-386,-421,-459,-498,-540,-577,-609,-640,-669,-702,-739,-775,-806,-827,-838,-846,-853,-857,-849,-832,-805,-767,-727,-692,-660,-630,-600,-567,-533,-497,-460,-424,-390,-355,-319,-282,-254,-237,-224,-215,-208,-201,-195,-189,-182,-174,-157,-133,-111,-86,-57,-31,9,65,144,244,349,448,544,638,721,769,787,785,757,683,584,492,407,321,242,180,123,98,89,84,80,78,77,77,79,81,84,86,90,94,94,86,70,46,11,-12,-32,-55,-78,-100,-122,-136,-146,-154,-158,-160,-158,-154,-149,-142,-134,-119,-100,-88,-80,-75,-70,-64,-57,-49,-43,-38,-34,-30,-26,-23,-19,-16,-12,-8,-5,-1,2,7,13,25,47,65,80,92,106,122,142,163,176,182,187,190,193,194,193,188,182,175,170,165,161,157,154,152,151,151,152,154,157,160,164,167,170,173,175,176,176,174,171,168,165,162,158,155,151,149,148,147,146,145,145,146,147,148,151,154,157,161,164,167,172,179,193,207,219,231,240,250,261,273,287,302,312,318,322,326,328,330,332,332,329,323,315,305,291,267,246,229,215,201,186,161,131,108,91,76,62,47,31,21,14,10,6,4,3,5,10,16,23,29,35,41,47,52,57,59,60,59,57,56,54,51,46,38,39,54,95,156,247,360,482,601,698,738,751,725,648,537,405,283,182,96,22,2,-3,-7,4,17,28,27,9,-17,-53,-82,-102,-118,-128,-135,-142,-150,-160,-169,-177,-183,-190,-197,-205,-213,-219,-224,-230,-235,-240,-243,-243,-241,-236,-231,-226,-220,-214,-204,-194,-189,-193,-200,-209,-214,-220,-227,-231,-232,-230,-225,-218,-205,-173,-149,-137,-129,-120,-111,-103,-94,-85,-72,-61,-52,-44,-29,0,15,22,28,32,35,37,38,39,39,39,38,37,36,34,33,32,30,28,27,25,21,18,26,41,54,67,77,86,93,98,101,104,107,109,111,112,113,113,113,112,109,106,102,97,92,87,82,76,66,55,45,37,28,18,5,-6,-17,-28,-39,-50,-63,-74,-83,-93,-104,-115,-121,-126,-130,-133,-137,-140,-143,-147,-151,-155,-159,-162,-165,-168,-172,-178,-185,-190,-191,-190,-185,-178,-168,-133,-84,-15,77,190,321,454,562,618,637,613,539,424,302,186,87,11,-11,-18,-23,-26,-27,-27,-25,-22,-20,-18,-15,-12,-9,-8,-12,-20,-29,-39,-53,-67,-81,-91,-98,-103,-108,-111,-115,-119,-122,-125,-129,-133,-139,-145,-153,-164,-175,-183,-192,-200,-207,-211,-211,-209,-205,-199,-193,-184,-168,-151,-130,-103,-81,-68,-56,-45,-29,-3,12,19,24,29,35,42,48,53,58,62,66,71,73,75,74,73,70,66,60,51,34,7,-7,-16,-24,-32,-42,-54,-66,-76,-84,-92,-102,-119,-143,-156,-164,-170,-173,-173,-168,-161,-154,-148,-142,-135,-129,-124,-119,-116,-112,-109,-104,-98,-89,-79,-72,-66,-60,-55,-50,-45,-41,-37,-33,-28,-21,-14,-7,0,7,14,22,30,37,42,46,50,53,57,59,61,60,58,55,51,48,45,43,40,37,35,33,33,34,37,41,45,49,51,55,60,64,68,68,66,62,57,54,50,46,40,35,31,27,24,21,18,15,12,11,13,17,23,29,41,67,84,94,102,106,106,105,102,101,98,95,110,156,222,316,435,563,684,784,845,866,845,780,652,498,342,217,135,106,106,136,166,177,180,174,161,140,115,101,92,89,95,110,131,161,178,187,194,199,200,199,195,189,184,179,173,166,159,153,147,140,123,107,101,98,96,96,100,107,115,119,124,129,134,138,141,142,142,142,143,144,144,145,145,145,146,146,146,145,144,141,139,137,134,128,120,107,98,91,86,81,76,72,67,56,33,9,-15,-41,-68,-97,-114,-123,-118,-81,-30,-4,7,14,20,24,25,24,22,21,19,16,12,24,34,39,44,50,54,57,59,64,71,71,63,55,49,42,33,22,5,-22,-53,-79,-100,-125,-153,-183,-203,-215,-223,-223,-218,-208,-192,-167,-149,-135,-122,-113,-104,-99,-100,-105,-110,-116,-115,-99,-82,-63,-47,-26,-5,7,16,0,-16,-28,-34,-28,-12,34,119,240,395,558,694,784,813,805,735,612,445,248,71,-47,-106,-130,-146,-168,-189,-203,-204,-192,-160,-112,-78,-68,-60,-52,-43,-27,-1,42,85,127,168,210,231,241,247,252,259,266,274,284,295,308,321,339,356,359,361,363,364,360,350,334,310,290,275,261,243,217,186,158,131,106,68,29,5,-21,-47,-67,-83,-99,-113,-125,-135,-145,-153,-160,-166,-174,-181,-190,-206,-234,-264,-289,-307,-321,-333,-342,-350,-354,-351,-343,-336,-329,-324,-324,-334,-346,-354,-360,-366,-371,-377,-383,-390,-395,-402,-411,-424,-437,-452,-476,-504,-523,-536,-521,-496,-472,-463,-458,-455,-452,-449,-446,-441,-436,-430,-424,-419,-415,-411,-407,-403,-399,-394,-390,-386,-382,-378,-373,-370,-367,-365,-363,-361,-360,-358,-354,-350,-345,-342,-340,-341,-345,-349,-355,-360,-365,-372,-380,-386,-389,-387,-383,-376,-368,-356,-337,-319,-301,-283,-265,-247,-230,-211,-192,-174,-161,-151,-142,-130,-113,-98,-85,-73,-63,-53,-40,-23,-5,6,14,21,29,37,46,60,80,97,106,111,115,118,122,127,132,136,140,144,150,159,167,171,174,176,181,187,179,168,159,178,197,210,221,230,237,250,264,269,272,275,277,278,279,280,280,278,275,271,268,263,257,251,246,241,235,228,221,213,201,184,174,168,158,149,163,205,285,394,524,656,771,820,836,810,732,638,555,465,367,282,218,177,162,162,176,187,197,204,207,204,196,186,175,161,149,140,123,96,70,51,32,20,11,5,-1,-6,-12,-18,-28,-43,-67,-84,-98,-108,-112,-112,-111,-110,-109,-108,-108,-107,-104,-96,-86,-74,-55,-34,-13,7,24,34,40,44,48,52,56,60,64,71,81,99,120,142,163,180,193,204,218,234,245,255,264,270,270,262,251,241,233,226,220,214,207,201,195,191,186,181,174,163,146,133,121,113,107,101,96,90,85,80,75,70,66,63,60,57,54,50,47,44,42,42,43,45,47,50,54,58,63,68,72,76,80,85,92,98,100,98,93,88,84,82,81,80,80,78,76,75,74,73,72,72,72,72,73,74,74,75,76,75,74,73,71,69,67,65,63,61,58,55,53,51,49,47,44,41,39,36,34,32,30,29,29,30,32,34,37,39,41,44,47,49,52,54,55,57,59,60,62,64,66,67,69,70,71,72,74,77,82,88,97,138,203,283,377,477,570,633,654,641,601,521,416,292,162,35,-14,-30,0,42,73,63,33,-25,-45,-55,-55,-48,-39,-35,-33,-31,-29,-28,-26,-24,-22,-20,-18,-18,-18,-19,-21,-23,-25,-26,-27,-27,-26,-25,-24,-22,-21,-19,-19,-18,-17,-17,-17,-17,-17,-17,-17,-15,-13,-10,-6,-3,0,4,7,9,12,14,17,19,24,31,44,57,72,89,110,131,153,174,196,211,221,230,235,235,230,222,212,198,177,163,146,123,102,86,67,57,51,45,42,39,36,32,29,26,22,18,13,9,2,-5,-13,-20,-29,-48,-67,-74,-80,-82,-77,-66,-56,-47,-37,-27,-17,-11,-6,0,4,7,8,8,5,1,-3,-9,-15,-23,-34,-45,-50,-54,-58,-61,-66,-70,-73,-74,-72,-66,-57,-44,1,67,148,242,346,447,523,549,536,498,409,295,162,29,-81,-156,-174,-176,-178,-160,-144,-133,-125,-117,-111,-105,-99,-94,-88,-81,-74,-67,-61,-54,-44,-36,-31,-29,-27,-25,-20,-20,-23,-24,-24,-26,-27,-27,-28,-28,-29,-30,-31,-32,-31,-30,-30,-30,-29,-28,-27,-24,-21,-19,-18,-17,-15,-13,-10,-7,-4,0,5,12,19,26,33,39,47,56,66,76,87,97,104,112,120,127,131,131,128,123,117,110,97,73,57,47,35,22,12,3,-4,-5,-1,5,14,26,39,52,63,69,72,75,77,78,75,69,62,57,54,50,46,43,39,37,35,33,32,30,29,28,27,25,23,22,23,26,32,38,45,56,58,59,60,61,62,63,63,63,64,63,63,62,61,60,59,57,57,55,53,49,44,38,26,3,-7,-13,-18,-21,-22,-21,-19,-16,-13,-10,-7,-4,-1,0,2,4,6,9,11,14,16,18,19,21,24,28,32,49,98,171,266,372,483,583,647,669,648,585,470,336,203,90,22,0,-9,-12,-20,-37,-61,-80,-91,-98,-102,-99,-92,-87,-83,-80,-78,-77,-76,-74,-73,-71,-69,-67,-66,-65,-63,-60,-57,-54,-52,-49,-46,-43,-39,-34,-30,-26,-23,-20,-18,-15,-13,-11,-9,-7,-5,-3,0,3,12,31,43,49,54,59,66,72,78,84,90,95,100,107,120,139,147,151,154,157,158,159,158,156,153,150,146,141,133,125,119,110,94,81,75,68,60,53,46,37,28,19,9,0,-5,-8,-12,-15,-18,-20,-22,-24,-25,-26,-28,-30,-29,-26,-20,-14,-9,-1,2,0,-4,-6,-9,-13,-18,-23,-28,-31,-34,-37,-40,-43,-45,-46,-46,-47,-49,-51,-53,-55,-57,-58,-60,-63,-67,-71,-75,-78,-83,-88,-94,-98,-98,-95,-91,-85,-76,-63,-54,-48,-61,-72,-78,-84,-90,-95,-100,-107,-115,-120,-118,-112,-109,-107,-105,-103,-101,-98,-94,-90,-83,-73,-36,33,130,246,365,469,530,550,537,496,409,292,155,22,-82,-144,-175,-186,-192,-196,-200,-204,-202,-192,-186,-182,-179,-176,-172,-169,-166,-163,-159,-153,-146,-139,-134,-130,-126,-123,-119,-115,-110,-106,-104,-101,-99,-96,-93,-90,-88,-85,-82,-78,-70,-62,-52,-39,-26,-23,-20,-16,-22,-28,-33,-35,-31,-22,-9,13,24,27,30,33,36,39,41,43,45,46,47,48,48,47,46,45,43,42,40,37,34,30,27,24,20,9,-12,-28,-49,-60,-64,-67,-71,-74,-76,-78,-79,-80,-80,-80,-80,-79,-78,-77,-75,-74,-73,-71,-69,-67,-66,-64,-62,-60,-56,-49,-41,-31,-22,-11,-2,1,3,4,6,7,8,8,9,10,8,4,0,-7,-19,-45,-60,-67,-72,-77,-80,-82,-83,-84,-84,-85,-85,-85,-86,-86,-86,-87,-90,-82,-75,-69,-66,-72,-84,-95,-105,-114,-120,-126,-133,-141,-146,-144,-138,-120,-84,-29,51,159,288,420,534,612,630,620,547,429,290,146,6,-112,-193,-225,-225,-185,-128,-93,-80,-74,-70,-65,-63,-65,-70,-72,-74,-76,-78,-79,-80,-80,-81,-81,-80,-79,-76,-72,-67,-60,-47,-29,-19,-13,-13,-19,-23,-27,-31,-35,-38,-42,-51,-49,-27,-5,9,17,22,27,31,35,38,42,47,51,56,61,65,70,77,83,83,79,72,60,42,25,14,24,33,41,47,53,70,110,127,135,142,143,141,139,138,135,130,124,120,117,113,110,107,104,102,101,100,99,98,97,96,96,95,94,93,91,90,90,90,89,89,88,86,85,84,83,81,79,76,73,70,68,66,63,60,57,55,53,50,45,44,45,45,46,48,49,49,47,43,39,31,25,24,22,21,20,20,21,23,24,26,28,31,31,25,20,16,10,5,-1,-14,-26,-32,-36,-24,9,62,135,229,342,460,571,667,724,728,689,584,440,271,113,-8,-90,-118,-127,-114,-95,-82,-89,-109,-127,-134,-133,-124,-117,-111,-107,-107,-112,-120,-132,-149,-161,-170,-178,-190,-201,-206,-209,-211,-213,-213,-210,-207,-203,-202,-200,-199,-198,-196,-194,-192,-191,-189,-187,-185,-183,-182,-180,-177,-174,-169,-159,-152,-147,-143,-141,-138,-136,-134,-131,-128,-125,-121,-116,-108,-95,-89,-85,-82,-79,-78,-78,-80,-85,-92,-105,-123,-132,-137,-143,-149,-157,-183,-212,-227,-238,-246,-255,-262,-268,-271,-266,-257,-247,-236,-228,-223,-215,-199,-186,-180,-174,-168,-163,-156,-144,-125,-106,-89,-73,-59,-36,-4,18,25,29,34,37,41,58,84,112,123,123,113,86,35,-40,-135,-234,-321,-384,-408,-416,-405,-386,-367,-339,-303,-254,-195,-132,-74,-30,2,36,69,100,120,130,135,139,141,143,144,145,145,145,144,143,142,141,139,137,134,131,127,128,132,140,148,158,172,182,190,197,204,210,221,239,271,298,325,353,368,383,398,413,432,455,474,490,506,521,537,553,571,581,587,591,594,594,591,586,580,568,549,518,483,446,411,375,340,307,278,249,230,208,190,175,160,146,131,119,110,99,89,79,73,70,68,67,66,65,64,63,63,63,64,65,66,67,68,70,73,72,69,67,67,71,73,75,77,79,80,80,82,84,87,87,81,72,58,40,26,17,10,0,-7,-13,-18,-23,-27,-36,-49,-61,-73,-79,-83,-86,-87,-85,-80,-74,-68,-60,-55,-59,-66,-74,-84,-90,-96,-102,-105,-109,-113,-104,-96,-92,-88,-85,-84,-85,-87,-91,-96,-105,-119,-129,-136,-131,-126,-121,-122,-131,-138,-144,-149,-153,-156,-158,-161,-165,-165,-158,-150,-142,-142,-149,-155,-160,-164,-165,-164,-159,-153,-142,-130,-126,-123,-121,-120,-120,-120,-122,-124,-129,-126,-106,-97,-96,-94,-94,-96,-101,-108,-123,-138,-147,-147,-135,-102,-42,33,124,227,325,402,438,450,436,395,321,223,98,-43,-169,-230,-250,-243,-222,-203,-196,-196,-201,-205,-208,-210,-211,-210,-207,-202,-196,-192,-187,-183,-179,-176,-173,-170,-166,-164,-164,-167,-170,-174,-178,-181,-181,-177,-171,-166,-160,-155,-153,-151,-148,-144,-148,-152,-157,-155,-143,-134,-127,-121,-116,-113,-109,-105,-98,-91,-84,-76,-66,-55,-39,-21,-9,-2,4,10,17,25,34,45,59,68,74,82,90,95,99,102,105,107,108,108,106,102,98,94,90,86,82,77,71,66,61,55,42,26,19,15,11,7,3,1,-1,-4,-8,-10,-11,-11,-10,-9,-8,-6,-3,1,-3,-7,-11,-14,-16,-15,-12,-8,-6,-4,-2,-1,0,2,5,8,10,13,16,18,22,27,33,38,44,50,56,61,62,61,60,59,57,55,54,56,61,67,73,81,86,88,89,90,90,91,92,93,93,93,92,90,89,87,85,82,79,75,70,63,53,39,29,22,17,13,7,2,-2,-8,-13,-15,-14,-11,-6,8,68,158,269,395,523,633,698,706,683,607,509,383,234,87,-28,-78,-94,-80,-37,-16,-12,-9,-7,-5,-3,-2,-1,0,0,0,0,-2,-4,-5,-7,-8,-10,-13,-19,-28,-34,-38,-42,-42,-38,-35,-32,-30,-31,-35,-42,-52,-63,-67,-71,-75,-74,-62,-49,-35,-28,-18,-1,14,22,28,35,40,45,50,54,59,63,67,72,82,98,107,113,116,119,119,117,112,105,94,74,59,51,44,37,31,26,23,19,15,10,4,-2,-16,-38,-50,-57,-62,-66,-69,-70,-72,-75,-77,-79,-81,-82,-83,-83,-83,-83,-83,-83,-82,-82,-83,-84,-85,-85,-83,-79,-76,-72,-67,-64,-69,-79,-88,-95,-102,-108,-113,-117,-121,-125,-129,-132,-133,-131,-126,-120,-112,-97,-72,-60,-55,-51,-47,-44,-43,-41,-41,-40,-41,-41,-40,-39,-40,-41,-42,-43,-44,-45,-46,-48,-49,-47,-44,-40,-40,-41,-42,-42,-39,-38,-37,-36,-35,-34,-34,-33,-32,-30,-28,-26,-24,-24,-23,-22,-21,-19,-17,-16,-14,-12,-9,-6,-3,0,4,8,14,24,30,23,11,5,0,-3,-7,-10,-12,-14,-17,-20,-23,-26,-28,-29,-31,-34,-38,-43,-46,-49,-51,-52,-53,-54,-54,-55,-55,-55,-55,-56,-57,-58,-59,-61,-63,-66,-70,-73,-77,-83,-94,-94,-81,-49,17,112,229,358,489,610,703,733,727,667,557,423,281,142,20,-47,-67,-77,-84,-88,-93,-104,-127,-142,-148,-152,-156,-160,-164,-170,-176,-183,-190,-198,-206,-213,-216,-217,-218,-219,-220,-223,-225,-227,-228,-228,-224,-218,-210,-202,-195,-186,-178,-170,-165,-159,-155,-152,-150,-147,-145,-143,-142,-140,-138,-136,-134,-132,-131,-129,-128,-126,-124,-122,-120,-117,-112,-106,-99,-92,-85,-77,-69,-60,-51,-45,-41,-38,-35,-33,-31,-29,-27,-25,-22,-19,-16,-12,-8,-2,2,12,29,43,55,65,74,82,90,99,115,143,158,164,168,173,177,180,183,186,188,189,190,192,193,193,193,193,194,196,198,201,204,207,211,215,220,225,229,233,240,255,263,257,245,235,226,217,210,206,203,199,195,192,190,191,195,200,207,211,213,214,216,219,221,224,225,227,229,230,231,232,233,233,233,233,232,232,231,230,231,233,234,235,235,236,235,235,234,234,233,232,231,231,232,233,234,236,238,240,243,246,249,252,253,256,262,270,278,284,285,283,279,274,269,260,243,227,212,200,187,172,163,155,149,142,136,130,125,120,114,108,100,92,85,79,72,66,62,58,54,51,47,42,38,33,27,20,11,-4,-20,-35,-47,-57,-66,-74,-82,-88,-94,-101,-106,-109,-109,-106,-99,-89,-55,-5,58,128,193,224,245,261,263,250,213,139,28,-103,-239,-354,-392,-405,-383,-346,-306,-283,-271,-263,-256,-249,-243,-237,-229,-220,-211,-200,-188,-179,-172,-165,-160,-157,-155,-154,-153,-153,-152,-151,-151,-150,-149,-148,-149,-152,-158,-165,-171,-179,-186,-185,-175,-162,-151,-138,-126,-118,-110,-100,-86,-70,-58,-50,-40,-29,-18,1,33,54,65,74,84,94,103,112,120,128,138,148,158,165,173,180,186,189,190,188,184,178,171,157,130,103,75,47,18,-11,-40,-84,-139,-161,-168,-171,-174,-176,-177,-176,-172,-165,-157,-149,-142,-133,-125,-118,-113,-110,-107,-105,-101,-96,-92,-93,-99,-107,-112,-116,-119,-121,-123,-124,-125,-124,-123,-120,-117,-113,-110,-107,-103,-101,-98,-97,-97,-98,-101,-106,-113,-120,-127,-137,-147,-155,-161,-169,-183,-209,-224,-231,-237,-242,-244,-245,-244,-241,-236,-230,-224,-220,-214,-208,-202,-196,-191,-186,-180,-170,-151,-118,-67,0,81,175,279,387,486,544,564,534,444,304,145,-6,-128,-182,-200,-184,-168,-156,-152,-154,-157,-159,-161,-163,-164,-165,-164,-161,-157,-153,-148,-143,-136,-127,-118,-108,-99,-95,-93,-90,-88,-86,-84,-83,-82,-81,-80,-79,-78,-76,-75,-72,-70,-67,-64,-62,-61,-60,-58,-54,-50,-46,-39,-31,-23,-16,-10,-3,2,10,18,28,38,46,53,61,69,78,87,98,111,127,137,144,150,154,154,146,132,111,78,61,53,47,41,34,29,24,20,15,6,-8,-25,-32,-36,-39,-42,-46,-48,-50,-51,-51,-50,-49,-47,-46,-44,-42,-40,-38,-36,-34,-33,-32,-30,-28,-26,-23,-22,-21,-23,-25,-29,-34,-38,-42,-46,-50,-54,-57,-59,-61,-62,-63,-65,-66,-69,-72,-77,-85,-91,-89,-84,-82,-80,-78,-75,-72,-70,-67,-63,-58,-53,-49,-45,-43,-41,-39,-37,-33,-29,-25,-23,-20,-18,-15,-12,-10,-9,-8,-7,-5,-3,0,3,8,15,26,64,120,196,294,406,514,606,674,697,679,620,502,355,182,21,-65,-94,-76,-42,-20,-12,-6,-22,-51,-74,-83,-90,-91,-80,-62,-55,-51,-48,-45,-43,-42,-41,-40,-38,-36,-35,-33,-32,-31,-31,-30,-28,-27,-26,-26,-25,-24,-23,-21,-19,-17,-16,-14,-11,-8,-5,-1,1,4,7,10,13,16,19,22,26,31,38,51,65,78,90,97,104,110,115,120,123,125,125,123,120,117,113,109,104,99,89,79,73,70,67,64,61,57,53,46,39,32,22,9,-1,-10,-22,-34,-36,-37,-39,-41,-42,-40,-35,-31,-28,-25,-22,-18,-13,-8,-2,2,8,14,21,26,30,34,36,39,41,44,45,46,46,46,45,44,42,39,36,34,32,30,28,26,24,22,21,19,18,17,17,18,19,21,22,24,26,28,31,34,37,40,45,50,54,58,61,63,65,67,70,72,73,75,75,75,73,71,69,66,62,55,52,56,66,97,143,201,275,366,463,555,628,660,656,603,498,369,224,86,-15,-55,-70,-71,-66,-64,-63,-62,-61,-60,-59,-58,-56,-53,-51,-48,-46,-44,-41,-34,-20,-9,-4,-2,0,2,3,3,4,4,4,3,4,4,6,7,9,11,13,15,18,21,25,28,31,36,44,52,58,60,62,63,66,69,72,69,62,57,52,48,46,47,50,54,60,66,76,84,91,96,101,105,107,109,108,105,101,96,77,42,7,-9,-19,-26,-32,-38,-44,-50,-50,-44,-37,-31,-44,-56,-65,-72,-76,-79,-85,-98,-107,-112,-116,-118,-119,-120,-119,-117,-114,-111,-109,-106,-104,-102,-100,-98,-95,-92,-89,-86,-82,-75,-72,-74,-78,-81,-84,-87,-90,-91,-92,-93,-95,-97,-98,-98,-97,-97,-96,-96,-97,-97,-96,-94,-91,-89,-88,-87,-86,-84,-83,-81,-80,-80,-81,-80,-80,-79,-79,-79,-77,-75,-74,-75,-77,-79,-80,-81,-82,-82,-82,-80,-77,-72,-63,-45,-10,45,124,227,339,443,525,567,581,563,507,403,273,136,14,-79,-132,-149,-140,-114,-89,-82,-78,-75,-71,-68,-64,-57,-47,-42,-40,-38,-38,-38,-37,-36,-35,-34,-33,-32,-31,-30,-29,-29,-28,-27,-26,-23,-21,-18,-16,-12,-6,-3,-4,-6,-8,-10,-12,-12,-11,-7,-2,4,9,16,22,27,32,36,39,43,47,51,55,58,62,67,74,81,89,94,98,102,104,106,106,104,101,97,93,87,78,70,62,53,42,32,19,1,-14,-25,-33,-38,-42,-45,-47,-47,-44,-40,-36,-33,-30,-26,-23,-20,-17,-14,-11,-9,-6,-3,-1,0,0,1,2,2,2,3,3,4,5,7,8,8,5,2,0,-3,-6,-8,-9,-7,-5,-2,1,6,9,10,8,6,5,3,1,0,1,6,11,16,22,28,28,25,22,19,15,11,10,11,13,15,16,18,20,20,18,12,6,1,-4,-10,-14,-14,-13,-10,-6,0,15,25,31,34,34,30,23,12,-3,-14,-23,-37,-48,-57,-63,-63,-60,-55,-46,-34,-22,-12,4,34,65,75,80,75,65,60,57,54,52,50,48,46,44,41,38,32,30,33,43,71,133,224,346,480,606,701,753,758,731,642,523,387,251,129,23,-52,-77,-86,-76,-46,-16,-7,-4,-2,-1,-1,-4,-9,-12,-18,-21,-17,-10,-8,-6,-4,-3,-1,0,0,2,4,5,6,8,9,11,12,14,17,21,26,30,35,43,52,58,64,69,68,60,47,33,20,11,7,4,3,7,15,21,27,32,36,39,42,46,50,57,67,77,88,93,96,98,100,100,95,93,91,90,88,87,85,84,82,80,76,73,65,46,32,25,20,16,12,8,5,3,0,-2,-4,-6,-7,-7,-8,-7,-6,-3,-1,2,5,9,12,16,20,24,28,30,32,34,35,36,37,37,38,40,41,41,40,36,33,29,27,25,23,20,18,16,16,16,17,18,20,22,23,26,28,31,33,37,42,51,81,141,221,321,431,536,628,699,716,706,632,511,354,183,31,-69,-98,-107,-92,-74,-61,-62,-77,-86,-92,-98,-102,-105,-105,-103,-101,-99,-97,-95,-94,-92,-89,-86,-83,-82,-81,-80,-78,-76,-74,-72,-69,-67,-63,-60,-56,-49,-43,-39,-35,-31,-27,-24,-21,-19,-17,-15,-13,-11,-10,-7,-3,6,20,36,51,64,74,82,89,94,99,103,108,111,111,105,97,90,81,74,69,64,61,57,53,49,46,42,37,27,13,5,-1,-11,-17,-21,-25,-28,-31,-34,-36,-38,-39,-40,-41,-42,-43,-44,-45,-45,-45,-46,-46,-47,-47,-48,-48,-49,-49,-50,-50,-51,-52,-54,-55,-56,-58,-63,-67,-71,-74,-79,-85,-84,-77,-72,-67,-63,-61,-60,-59,-58,-57,-56,-56,-55,-55,-55,-56,-58,-60,-62,-65,-69,-78,-85,-90,-95,-97,-95,-90,-82,-71,-65,-60,-58,-61,-70,-84,-94,-97,-92,-60,-3,79,188,315,443,558,644,683,686,661,578,451,299,138,-5,-105,-139,-142,-120,-94,-74,-67,-65,-68,-76,-85,-95,-102,-111,-119,-123,-126,-125,-121,-116,-113,-109,-105,-101,-97,-93,-89,-83,-75,-61,-49,-46,-44,-42,-41,-43,-46,-50,-53,-57,-60,-59,-55,-50,-46,-42,-37,-35,-34,-33,-31,-29,-28,-26,-26,-26,-26,-27,-29,-30,-32,-35,-26,-12,2,12,21,32,41,48,53,53,51,48,45,43,41,38,35,32,28,20,7,0,-4,-8,-13,-20,-26,-32,-38,-43,-46,-50,-55,-55,-48,-44,-41,-38,-36,-35,-36,-39,-43,-47,-52,-59,-63,-61,-56,-52,-48,-44,-39,-34,-29,-25,-19,-13,-7,-2,0,4,7,11,14,17,20,28,43,51,55,59,61,62,61,59,57,55,54,52,51,48,46,43,41,38,34,25,9,-3,-10,-15,-17,-20,-23,-25,-23,-19,-12,0,9,16,27,35,43,48,50,51,51,51,51,52,52,52,53,52,51,49,46,44,40,34,34,40,58,84,131,200,287,385,487,578,643,666,660,606,498,367,244,146,77,31,1,-22,-47,-70,-72,-58,-20,-2,3,-2,-10,-16,-15,-5,1,9,14,14,11,5,1,-2,-5,-7,-6,-2,2,11,23,29,33,32,25,20,16,13,11,11,12,16,20,28,43,55,64,72,78,82,86,90,96,102,109,117,123,125,127,128,130,132,135,139,144,148,151,154,156,157,157,155,151,147,143,140,137,133,129,126,123,121,119,116,113,110,105,100,95,88,79,66,53,42,33,25,18,15,11,8,5,3,2,2,3,4,6,8,12,17,18,10,5,1,-1,-4,-5,-4,0,5,9,12,14,17,19,21,23,24,25,27,28,29,29,29,29,29,29,29,30,32,39,77,134,207,294,387,482,572,639,658,648,575,435,266,94,-56,-165,-196,-193,-149,-124,-116,-125,-135,-144,-148,-143,-134,-129,-124,-121,-119,-117,-115,-112,-110,-108,-107,-106,-106,-104,-102,-96,-83,-76,-73,-70,-67,-63,-59,-55,-52,-49,-44,-40,-37,-35,-37,-39,-42,-45,-48,-53,-56,-51,-40,-29,-17,-7,0,6,11,17,23,29,35,42,47,49,51,53,54,56,56,56,55,52,49,45,39,28,17,2,-14,-32,-45,-61,-83,-109,-128,-134,-137,-137,-137,-135,-131,-126,-113,-95,-83,-79,-76,-75,-73,-72,-71,-69,-67,-65,-63,-60,-58,-54,-50,-47,-45,-42,-38,-35,-35,-37,-41,-43,-44,-46,-48,-48,-49,-48,-48,-47,-45,-43,-41,-39,-37,-35,-33,-31,-29,-27,-25,-24,-22,-20,-17,-15,-14,-13,-14,-16,-19,-22,-27,-35,-45,-50,-54,-56,-59,-61,-61,-61,-60,-59,-56,-52,-48,-42,-33,-27,-23,-21,-19,-17,-16,-14,-13,-10,-7,-4,-1,2,6,11,16,22,26,32,46,53,54,55,56,56,55,53,50,43,36,34,32,30,30,32,35,36,37,38,39,40,41,41,42,41,40,39,38,37,34,32,31,31,32,35,38,42,47,42,38,36,35,33,32,32,31,32,32,33,36,39,44,63,118,196,293,399,501,583,639,654,648,604,522,399,255,114,2,-52,-70,-63,-43,-19,-11,-11,-19,-28,-37,-42,-46,-49,-51,-54,-56,-58,-62,-64,-64,-61,-57,-49,-36,-20,-10,-8,-7,-5,-4,-3,-1,0,0,3,6,9,12,15,18,21,25,28,30,32,33,34,35,37,40,42,43,44,44,46,48,43,37,31,31,39,44,49,53,58,64,70,75,82,88,93,97,102,112,124,131,135,127,118,111,103,95,83,67,53,43,36,31,28,25,23,19,15,10,6,3,0,-2,-5,-8,-11,-15,-19,-23,-26,-31,-36,-40,-42,-42,-39,-35,-32,-27,-21,-17,-20,-26,-28,-30,-32,-34,-36,-37,-37,-38,-38,-38,-39,-39,-38,-36,-35,-34,-33,-31,-30,-33,-40,-45,-48,-52,-55,-58,-61,-64,-67,-71,-76,-86,-100,-113,-124,-124,-111,-77,-19,59,161,281,405,522,620,692,708,697,622,492,321,140,-4,-90,-109,-114,-118,-119,-119,-116,-111,-102,-88,-79,-73,-74,-84,-90,-95,-99,-102,-104,-104,-103,-100,-97,-94,-92,-90,-87,-85,-82,-79,-76,-73,-69,-65,-60,-55,-49,-38,-30,-25,-22,-19,-16,-13,-11,-8,-4,-1,4,14,32,45,53,58,62,66,71,78,86,92,95,99,102,107,112,117,122,128,134,138,142,145,149,155,159,156,149,138,122,107,92,77,62,49,38,24,13,5,0,-6,-11,-18,-26,-35,-40,-44,-47,-50,-51,-51,-50,-48,-46,-43,-40,-36,-32,-30,-30,-31,-32,-33,-34,-35,-36,-37,-36,-35,-32,-30,-29,-28,-26,-24,-23,-22,-23,-25,-28,-32,-36,-39,-43,-47,-50,-52,-54,-54,-53,-52,-50,-47,-42,-25,16,80,170,287,419,548,651,696,697,656,558,419,255,85,-60,-136,-143,-107,-42,0,2,-24,-76,-111,-123,-115,-103,-85,-70,-60,-52,-46,-41,-37,-33,-29,-23,-18,-14,-11,-8,-5,-2,0,2,4,7,12,20,29,36,41,46,49,52,56,62,62,55,52,49,46,44,43,43,45,48,52,55,59,63,68,74,80,85,88,90,93,96,99,101,102,102,102,102,101,100,99,96,93,89,82,66,47,29,14,-1,-18,-36,-48,-54,-59,-66,-74,-80,-84,-86,-89,-91,-92,-94,-95,-96,-97,-98,-100,-101,-102,-102,-103,-103,-103,-103,-104,-105,-107,-112,-125,-148,-166,-172,-172,-163,-150,-133,-120,-110,-101,-92,-84,-84,-93,-101,-107,-113,-117,-121,-123,-126,-128,-130,-131,-130,-128,-125,-119,-113,-104,-89,-82,-74,-59,-48,-42,-38,-35,-34,-34,-35,-38,-41,-48,-57,-61,-64,-58,-54,-51,-49,-47,-46,-45,-45,-44,-43,-42,-41,-41,-39,-37,-35,-35,-36,-39,-44,-41,-16,31,101,194,301,408,503,568,588,583,536,444,317,167,29,-63,-91,-69,-27,-4,-4,-25,-51,-59,-61,-62,-60,-55,-58,-74,-85,-92,-96,-87,-72,-57,-47,-39,-36,-32,-29,-38,-49,-57,-59,-60,-60,-61,-61,-62,-62,-61,-59,-55,-51,-38,-26,-20,-15,-10,-6,-1,17,27,29,31,35,40,46,54,64,65,61,55,50,57,63,67,71,77,84,97,114,128,138,141,143,144,145,142,136,129,120,113,94,73,57,43,34,29,25,22,19,15,16,27,31,33,35,37,39,40,41,43,44,45,46,47,48,48,49,49,50,51,50,49,48,47,46,45,44,42,41,39,37,36,34,32,28,25,21,18,17,15,13,12,10,9,7,6,5,3,1,0,-1,-2,-3,-4,-6,-8,-9,-10,-11,-13,-14,-15,-15,-14,-12,-10,-7,-4,0,4,4,-1,-9,-18,-28,-36,-42,-52,-64,-72,-77,-70,-49,-17,31,105,205,326,455,562,622,631,613,525,394,240,90,-37,-103,-125,-111,-95,-82,-82,-92,-102,-112,-111,-100,-92,-85,-79,-77,-79,-86,-93,-99,-106,-112,-117,-120,-125,-130,-133,-130,-122,-114,-103,-94,-86,-77,-72,-67,-62,-63,-70,-74,-78,-81,-83,-84,-83,-80,-75,-70,-62,-49,-38,-30,-23,-17,-11,-5,0,4,9,14,19,25,33,44,55,63,68,72,78,84,89,94,100,106,109,109,107,104,99,91,73,49,29,14,2,-10,-20,-29,-36,-41,-44,-47,-50,-53,-55,-56,-54,-50,-45,-40,-35,-30,-25,-20,-17,-15,-13,-8,-2,-13,-31,-43,-47,-49,-52,-52,-52,-50,-47,-42,-31,-20,-15,-12,-21,-31,-39,-46,-52,-61,-69,-60,-34,5,61,132,216,306,392,465,518,554,580,578,540,437,300,151,17,-70,-82,-87,-78,-67,-59,-73,-95,-112,-120,-126,-117,-101,-89,-84,-80,-79,-83,-90,-94,-97,-100,-102,-104,-105,-106,-107,-108,-107,-106,-105,-103,-101,-98,-96,-93,-89,-84,-80,-77,-71,-61,-42,-30,-25,-21,-19,-16,-14,-11,-10,-8,-5,-2,3,14,28,39,45,51,57,62,67,72,78,85,91,94,95,95,96,98,85,70,56,45,34,23,12,4,-1,-6,-6,-1,4,8,11,14,16,18,20,22,24,26,28,30,33,36,40,42,41,40,37,35,33,31,28,27,27,28,30,32,34,36,38,41,44,47,50,55,73,109,171,255,354,458,555,631,667,680,666,621,532,408,266,132,22,-34,-42,-23,9,20,23,22,20,20,19,19,19,20,21,22,21,20,18,17,16,16,16,16,14,12,10,8,8,6,3,0,-2,-3,-2,0,3,6,9,13,19,26,32,35,37,39,43,46,51,56,61,66,69,72,76,79,82,84,86,87,89,92,95,103,114,118,120,122,123,124,122,120,115,110,100,82,67,55,45,33,17,0,-14,-25,-33,-33,-25,-18,-12,-6,0,8,18,22,24,26,27,29,31,33,35,36,38,40,42,43,42,40,37,34,29,19,6,0,-2,-4,-5,-6,-6,-4,-1,2,5,8,11,14,17,19,22,25,28,31,33,36,39,43,48,53,54,53,49,44,41,37,32,27,22,18,15,13,11,8,6,5,3,2,1,0,-1,-4,-7,-10,-14,-19,-24,-29,-34,-37,-40,-42,-45,-49,-48,-39,-15,27,91,174,275,393,513,615,686,706,700,644,540,410,260,109,-10,-80,-92,-79,-37,-13,-5,-11,-31,-59,-91,-101,-104,-107,-104,-103,-102,-102,-101,-101,-101,-100,-100,-99,-99,-99,-99,-100,-101,-101,-102,-102,-102,-103,-103,-104,-104,-105,-107,-111,-111,-104,-94,-81,-72,-67,-60,-53,-48,-45,-41,-36,-32,-28,-23,-17,-9,-3,1,5,7,9,11,13,16,18,21,24,31,46,58,65,69,71,69,65,59,50,36,16,-7,-18,-22,-25,-27,-29,-33,-38,-42,-48,-55,-61,-67,-75,-83,-88,-92,-96,-99,-95,-88,-83,-78,-74,-71,-70,-70,-72,-73,-74,-75,-76,-77,-78,-80,-80,-80,-79,-76,-73,-69,-62,-62,-62,-61,-61,-61,-61,-62,-62,-60,-58,-54,-50,-45,-38,-26,-24,-29,-35,-40,-39,-29,0,40,101,193,315,448,572,668,722,728,706,625,480,295,113,-30,-120,-137,-133,-94,-66,-57,-64,-85,-114,-128,-135,-141,-141,-135,-132,-130,-129,-128,-126,-124,-122,-120,-118,-113,-105,-90,-76,-62,-54,-50,-47,-43,-39,-34,-29,-23,-13,-7,-3,0,1,3,4,7,10,13,16,21,40,62,85,110,124,131,133,135,136,138,140,141,142,143,144,144,144,144,143,143,142,141,140,139,138,138,137,135,133,127,115,102,90,79,67,57,44,34,26,23,19,16,18,29,36,42,47,51,51,49,46,40,21,-1,-10,-14,-17,-20,-20,-18,-15,-9,1,14,28,35,39,42,44,46,48,50,52,54,57,61,69,79,94,105,113,111,97,84,71,63,58,52,53,71,106,163,240,330,428,530,621,684,705,683,618,503,348,187,46,-49,-81,-81,-53,-15,3,10,1,-8,-17,-23,-30,-40,-53,-64,-72,-77,-70,-59,-45,-30,-15,0,8,11,12,14,15,15,14,12,8,2,-9,-19,-26,-26,-17,-4,9,15,19,22,24,26,28,30,30,27,22,18,29,40,48,54,57,58,60,62,64,68,72,76,78,80,82,84,86,87,87,88,88,88,87,86,84,81,77,65,43,29,18,9,1,-8,-22,-31,-36,-40,-42,-42,-40,-37,-32,-27,-17,-7,-3,0,2,4,5,7,8,10,11,13,15,16,18,19,20,22,24,26,27,28,28,28,28,27,27,26,25,35,64,105,159,235,330,432,524,598,639,641,612,538,425,278,122,-15,-119,-170,-174,-149,-104,-70,-59,-72,-82,-88,-93,-96,-98,-98,-98,-98,-98,-99,-101,-102,-100,-96,-93,-90,-88,-89,-93,-97,-101,-107,-106,-97,-89,-83,-78,-73,-68,-65,-63,-60,-58,-56,-53,-51,-50,-48,-46,-41,-30,-20,-14,-10,-7,-5,-3,-1,0,1,2,3,4,5,6,7,8,8,9,11,14,17,16,13,8,1,-12,-29,-45,-56,-65,-67,-67,-68,-67,-67,-67,-68,-68,-68,-68,-67,-67,-66,-64,-61,-58,-55,-53,-50,-46,-42,-40,-39,-39,-38,-38,-38,-37,-37,-36,-35,-34,-33,-32,-30,-28,-25,-18,-9,-6,-5,-13,-26,-42,-51,-57,-61,-63,-63,-61,-59,-57,-55,-54,-52,-52,-51,-50,-49,-49,-50,-50,-51,-52,-54,-56,-58,-60,-62,-64,-65,-66,-67,-68,-68,-68,-67,-65,-63,-61,-58,-55,-48,-45,-47,-53,-56,-59,-61,-63,-64,-64,-63,-62,-60,-58,-55,-51,-48,-52,-59,-63,-66,-68,-70,-73,-75,-77,-79,-81,-82,-84,-86,-88,-90,-91,-90,-89,-86,-84,-80,-73,-73,-81,-85,-89,-92,-95,-96,-95,-93,-90,-87,-83,-79,-72,-64,-58,-52,-48,-45,-42,-39,-37,-34,-28,-14,15,62,128,217,322,427,518,586,629,642,632,566,430,254,78,-51,-103,-119,-129,-137,-144,-161,-174,-179,-182,-175,-164,-154,-147,-142,-152,-161,-167,-172,-173,-173,-173,-173,-173,-174,-166,-156,-147,-141,-134,-123,-109,-99,-92,-87,-96,-106,-116,-123,-129,-134,-134,-128,-118,-105,-94,-88,-82,-77,-72,-69,-66,-63,-61,-58,-56,-50,-38,-24,-10,5,21,38,53,74,96,120,135,149,165,182,198,214,231,242,248,253,256,258,260,261,263,265,266,267,267,265,263,259,255,247,231,216,205,194,183,172,167,164,161,159,159,164,172,186,208,233,256,274,287,298,309,320,327,331,334,336,338,339,338,335,332,329,326,323,320,317,314,311,308,305,301,293,273,250,229,215,207,198,190,176,156,134,115,98,82,67,44,28,21,14,10,8,7,7,8,9,12,15,19,28,45,56,61,66,68,68,66,62,57,47,28,14,8,3,-2,-7,-11,-21,-38,-50,-58,-65,-71,-78,-86,-98,-112,-125,-137,-153,-174,-195,-208,-215,-209,-169,-100,-8,101,221,334,424,460,455,393,285,147,7,-110,-198,-236,-236,-213,-200,-194,-190,-201,-219,-238,-250,-258,-258,-246,-229,-209,-192,-176,-162,-147,-137,-130,-124,-118,-101,-75,-44,-13,4,21,31,33,34,36,26,-3,-33,-51,-57,-60,-59,-55,-48,-43,-37,-33,-33,-39,-48,-62,-85,-96,-101,-105,-108,-111,-112,-113,-113,-113,-112,-110,-107,-104,-92,-64,-34,-19,-12,-7,-4,-3,-4,-8,-14,-34,-64,-81,-97,-114,-129,-147,-180,-218,-240,-255,-265,-275,-286,-294,-300,-306,-310,-314,-317,-320,-325,-331,-320,-301,-284,-276,-272,-268,-263,-256,-247,-239,-230,-221,-215,-208,-197,-174,-145,-130,-126,-124,-122,-122,-122,-125,-130,-137,-151,-172,-188,-201,-217,-228,-236,-242,-247,-250,-253,-255,-256,-257,-258,-260,-261,-262,-263,-263,-263,-263,-263,-262,-261,-259,-257,-255,-252,-249,-245,-225,-185,-128,-48,48,152,255,342,385,385,341,245,111,-49,-201,-315,-364,-369,-344,-298,-285,-282,-280,-279,-282,-290,-303,-319,-329,-335,-338,-338,-332,-324,-313,-299,-283,-271,-263,-256,-247,-238,-231,-226,-222,-219,-215,-211,-208,-205,-202,-197,-187,-169,-138,-103,-67,-44,-33,-28,-23,-19,-17,-15,-15,-15,-17,-19,-22,-25,-30,-35,-42,-53,-59,-56,-48,-36,-15,5,20,34,48,61,66,70,73,75,77,76,73,66,59,50,39,28,18,6,-8,-27,-46,-65,-82,-90,-95,-100,-104,-107,-110,-111,-112,-112,-112,-110,-108,-105,-100,-94,-86,-77,-55,-15,16,46,74,101,129,156,171,178,185,189,191,191,190,188,185,181,176,169,160,142,127,117,110,104,101,100,103,109,117,129,147,166,181,192,201,208,214,226,248,263,271,277,280,281,280,279,278,275,271,289,340,414,508,611,707,776,799,780,723,597,434,255,87,-43,-100,-121,-122,-110,-92,-67,-43,-27,-17,-10,-6,-2,4,14,24,34,44,54,61,65,69,73,76,81,85,90,95,101,108,116,127,135,139,142,144,146,147,149,151,152,154,156,159,163,168,172,177,184,195,207,217,227,236,247,256,265,274,283,293,304,318,331,343,352,356,358,360,362,363,365,365,366,366,366,365,362,357,352,344,336,326,309,295,284,271,256,239,232,228,224,221,220,218,217,215,214,214,213,213,212,211,210,209,209,209,209,208,207,206,205,204,205,205,204,203,204,204,205,206,206,205,204,203,202,201,200,197,194,191,188,185,182,176,164,155,151,148,145,141,137,136,140,146,149,153,156,159,161,163,165,165,164,162,158,153,148,143,138,132,126,120,115,111,108,105,103,102,101,99,97,96,96,95,95,94,93,93,93,93,92,91,90,90,90,91,92,94,96,97,99,102,106,109,126,183,258,355,471,590,695,757,777,751,668,532,355,169,3,-119,-185,-208,-221,-230,-241,-253,-271,-295,-328,-359,-380,-387,-391,-393,-396,-397,-398,-399,-399,-399,-399,-397,-394,-389,-384,-378,-372,-367,-362,-357,-351,-345,-340,-336,-332,-327,-320,-310,-293,-274,-263,-256,-249,-245,-243,-243,-246,-250,-256,-264,-279,-308,-333,-351,-358,-364,-368,-371,-363,-346,-318,-283,-257,-238,-218,-205,-196,-188,-182,-178,-175,-172,-169,-167,-166,-164,-163,-161,-160,-158,-158,-159,-159,-159,-159,-159,-160,-161,-163,-164,-164,-165,-165,-166,-166,-167,-168,-168,-169,-170,-170,-171,-170,-167,-161,-154,-145,-131,-122,-116,-112,-108,-107,-109,-114,-120,-124,-130,-135,-139,-140,-140,-139,-137,-136,-135,-133,-130,-127,-124,-122,-120,-116,-112,-107,-102,-97,-93,-89,-83,-78,-77,-79,-82,-85,-87,-89,-90,-88,-83,-78,-75,-71,-68,-66,-64,-62,-61,-60,-61,-62,-65,-67,-70,-74,-78,-87,-86,-71,-28,43,145,269,395,505,582,605,600,547,444,306,168,55,-17,-40,-48,-39,-30,-23,-24,-36,-47,-57,-67,-78,-96,-123,-141,-152,-160,-164,-162,-155,-147,-136,-122,-107,-95,-85,-76,-66,-54,-42,-38,-36,-34,-33,-32,-32,-34,-37,-41,-46,-51,-54,-49,-38,-32,-27,-22,-18,-12,-8,-3,0,5,9,14,19,25,30,36,42,48,54,59,63,67,70,74,83,96,105,111,115,118,119,117,114,108,99,81,59,38,24,15,7,0,-6,-20,-39,-51,-59,-66,-72,-76,-81,-84,-85,-83,-76,-67,-56,-41,-29,-20,-12,-6,0,4,7,10,13,15,16,16,13,9,3,-1,-6,-14,-21,-25,-27,-28,-31,-33,-22,-4,6,9,11,12,13,12,8,3,-5,-21,-32,-40,-39,-27,-19,-11,-4,-1,-1,-1,-1,-1,-1,-1,-1,-1,-5,-9,-14,-18,-24,-30,-36,-43,-52,-62,-67,-76,-72,-60,-55,-52,-48,-44,-40,-36,-32,-25,-15,-7,-1,5,11,11,3,-5,-12,-5,13,59,121,201,299,403,502,582,629,634,615,540,421,273,120,2,-39,-53,-46,-37,-31,-44,-55,-62,-68,-71,-71,-71,-70,-69,-69,-68,-67,-67,-64,-58,-52,-45,-38,-31,-28,-26,-23,-20,-18,-17,-16,-16,-16,-17,-17,-17,-16,-15,-13,-11,-7,-8,-15,-22,-30,-28,-15,0,16,26,35,46,58,66,71,75,79,83,86,88,90,92,96,99,101,100,95,89,86,85,84,83,82,80,78,75,73,70,68,66,63,60,57,52,46,35,24,16,9,2,-4,-10,-16,-20,-23,-26,-28,-31,-34,-35,-36,-35,-33,-30,-28,-27,-26,-24,-22,-20,-19,-19,-19,-20,-21,-22,-23,-25,-27,-28,-29,-30,-31,-31,-32,-34,-35,-36,-37,-38,-38,-38,-37,-36,-35,-34,-33,-32,-31,-31,-31,-31,-32,-32,-33,-33,-32,-32,-31,-31,-30,-28,-26,-25,-23,-22,-21,-21,-20,-19,-18,-17,-16,-15,-13,-12,-10,-7,-5,-3,-1,0,3,5,7,9,10,12,13,15,17,19,21,23,26,28,31,33,34,35,36,36,37,39,41,45,49,74,112,162,227,307,402,504,601,665,687,667,605,478,327,178,58,6,-9,-17,-22,-26,-30,-36,-43,-47,-44,-38,-36,-34,-32,-30,-30,-29,-27,-25,-22,-20,-18,-16,-15,-15,-13,-11,-9,-4,1,4,1,-4,-11,-17,-23,-29,-33,-33,-30,-23,-15,-2,15,23,27,30,32,34,36,39,43,48,54,60,68,81,103,117,125,129,133,136,140,145,150,155,160,166,175,188,199,207,213,219,223,226,226,225,222,217,212,202,191,175,154,137,126,119,114,110,108,105,103,99,95,90,85,77,72,71,70,68,65,64,68,70,72,73,74,75,76,78,80,83,86,88,90,92,96,100,105,110,116,120,125,130,134,136,135,132,127,121,111,88,72,64,57,52,47,44,41,38,34,29,21,11,3,-3,-9,-13,-13,-12,-9,-6,-3,0,4,3,-2,-9,-13,-16,-19,-22,-25,-28,-31,-34,-36,-39,-41,-43,-44,-45,-45,-46,-47,-48,-49,-51,-52,-54,-56,-57,-59,-60,-61,-63,-65,-68,-72,-82,-90,-96,-102,-108,-113,-116,-119,-121,-123,-125,-126,-126,-125,-122,-117,-110,-98,-80,-69,-62
