72,88,103,112,118,123,127,131,134,137,141,146,152,158,162,164,165,167,169,170,172,174,175,176,177,178,179,179,178,178,177,177,177,176,176,175,174,174,174,174,174,174,174,174,174,174,173,173,172,171,170,169,167,165,164,162,161,160,158,156,153,150,145,140,135,130,124,118,112,104,95,85,72,60,55,52,50,49,47,46,44,43,41,39,37,36,35,35,35,35,35,36,36,36,36,36,35,34,34,34,35,36,38,39,40,41,43,45,46,47,49,53,58,61,62,56,48,40,37,33,30,26,23,20,18,16,14,12,10,9,8,7,6,5,3,2,1,0,0,0,0,0,0,-1,-1,-1,-2,-3,-4,-3,-2,0,3,7,10,15,19,21,19,14,9,7,5,4,2,1,0,0,-1,-2,-2,-1,0,0,1,2,3,4,5,6,6,5,5,4,4,4,3,2,2,1,0,0,-1,-3,-4,-6,-7,-8,-9,-10,-11,-12,-14,-15,-16,-16,-17,-18,-19,-19,-20,-22,-23,-25,-25,-21,-14,-5,1,6,9,12,15,19,23,26,30,33,35,38,40,43,47,52,81,156,252,353,435,471,483,468,426,362,284,189,81,-20,-83,-106,-105,-83,-71,-64,-58,-53,-48,-45,-42,-39,-36,-33,-31,-29,-28,-27,-24,-22,-19,-17,-14,-11,-7,-2,2,7,12,16,21,26,31,36,40,43,46,49,51,53,55,58,60,62,64,65,65,65,64,62,59,56,53,50,48,46,45,45,44,44,43,43,44,44,45,46,46,47,48,49,50,52,53,54,55,55,55,54,52,51,49,47,45,42,39,37,34,31,25,9,-4,-16,-25,-32,-38,-43,-46,-50,-52,-55,-57,-58,-60,-64,-67,-69,-69,-64,-57,-51,-48,-45,-43,-40,-38,-36,-34,-33,-32,-31,-30,-28,-27,-27,-26,-26,-26,-27,-27,-29,-31,-33,-35,-36,-38,-40,-41,-43,-44,-45,-46,-48,-49,-52,-54,-56,-58,-60,-62,-63,-65,-66,-67,-68,-69,-69,-70,-71,-71,-71,-71,-71,-71,-70,-69,-68,-66,-64,-61,-58,-55,-52,-49,-46,-43,-40,-37,-35,-33,-31,-29,-27,-25,-23,-22,-20,-18,-17,-16,-15,-14,-13,-12,-12,-12,-12,-12,-12,-11,-11,-11,-11,-11,-11,-10,-10,-10,-10,-11,-12,-13,-14,-14,-15,-16,-16,-17,-17,-18,-18,-18,-19,-20,-21,-23,-24,-26,-28,-29,-30,-31,-30,-29,-28,-27,-25,-22,-20,-17,-15,-13,-11,-10,-7,-4,-1,2,6,10,14,16,18,20,23,25,29,51,103,190,314,470,628,732,740,672,476,224,-13,-168,-197,-189,-122,-78,-66,-61,-55,-49,-44,-40,-38,-35,-34,-32,-32,-32,-32,-31,-30,-29,-29,-29,-28,-27,-26,-25,-25,-24,-22,-21,-19,-18,-17,-15,-13,-9,-6,-2,1,6,15,25,30,33,35,36,37,37,37,37,38,38,40,41,43,45,47,49,51,54,57,59,61,63,65,68,71,74,77,80,83,86,89,91,91,91,90,89,88,86,84,82,81,80,78,76,73,69,59,47,33,22,13,4,-3,-11,-19,-24,-27,-29,-30,-32,-33,-34,-36,-37,-39,-40,-41,-41,-42,-42,-41,-41,-40,-40,-39,-39,-40,-40,-40,-40,-39,-39,-38,-37,-36,-35,-35,-34,-34,-34,-34,-33,-33,-32,-32,-31,-30,-29,-27,-25,-24,-24,-23,-23,-23,-23,-23,-24,-24,-25,-24,-24,-23,-23,-23,-24,-24,-25,-26,-28,-30,-32,-34,-35,-34,-33,-32,-30,-28,-25,-23,-20,-18,-16,-14,-13,-11,-10,-8,-7,-4,-2,0,2,4,6,8,9,10,11,11,11,11,11,12,12,11,11,10,10,9,9,8,8,8,9,9,10,10,10,9,9,8,7,7,6,5,4,4,3,3,2,2,1,1,0,0,0,-1,-2,-3,-4,-4,-4,-4,-2,0,1,4,6,9,10,11,12,13,15,17,20,23,25,27,29,31,34,37,41,47,79,142,230,347,487,625,711,714,642,452,208,-24,-187,-232,-229,-168,-111,-77,-61,-53,-47,-42,-39,-36,-34,-32,-30,-29,-28,-28,-27,-26,-25,-25,-25,-25,-25,-25,-25,-25,-25,-24,-22,-20,-18,-14,-11,-7,-2,1,6,9,12,15,18,21,24,28,31,35,39,42,46,48,48,48,46,44,42,40,37,34,32,29,28,27,26,25,23,21,19,17,16,15,14,14,14,15,17,19,21,23,25,27,30,33,37,39,38,35,30,23,14,0,-16,-27,-35,-41,-47,-53,-58,-63,-66,-70,-73,-76,-78,-79,-79,-77,-75,-73,-69,-65,-58,-46,-41,-39,-37,-35,-33,-31,-31,-31,-33,-34,-35,-35,-36,-38,-40,-41,-41,-39,-36,-34,-32,-31,-29,-27,-26,-24,-24,-24,-25,-26,-28,-30,-32,-34,-36,-38,-39,-41,-42,-43,-44,-45,-46,-47,-48,-48,-49,-49,-49,-49,-49,-48,-47,-46,-45,-43,-41,-39,-36,-33,-30,-28,-25,-20,-6,-1,0,0,0,0,1,1,2,2,2,2,3,4,5,5,5,6,7,7,8,9,10,11,12,15,17,20,21,20,18,16,14,13,12,11,10,9,8,8,7,7,7,7,6,6,6,5,5,4,4,4,3,2,1,0,-1,-2,-4,-6,-11,-16,-16,-10,-2,4,11,17,22,27,32,36,39,42,45,47,49,51,53,54,56,60,76,122,193,297,431,573,689,731,671,511,292,75,-75,-130,-133,-95,-53,-40,-32,-25,-20,-17,-16,-14,-13,-12,-11,-11,-10,-10,-10,-11,-11,-11,-11,-11,-11,-10,-10,-9,-8,-8,-7,-7,-7,-6,-6,-5,-4,-2,0,0,2,4,6,9,11,13,15,16,18,19,21,22,23,25,26,28,30,32,33,34,35,36,37,39,40,42,43,46,52,58,62,65,67,68,70,72,74,75,76,76,77,77,76,75,73,71,68,64,60,51,34,23,16,11,5,0,-3,-6,-9,-12,-15,-17,-19,-21,-22,-22,-23,-24,-24,-25,-25,-26,-27,-27,-27,-27,-27,-27,-27,-26,-26,-25,-24,-24,-24,-24,-23,-23,-23,-22,-22,-23,-23,-23,-22,-22,-22,-21,-18,-19,-29,-34,-38,-41,-44,-46,-47,-47,-46,-45,-44,-43,-42,-41,-39,-37,-35,-35,-36,-38,-41,-44,-46,-48,-51,-53,-55,-57,-58,-58,-57,-56,-55,-53,-51,-49,-46,-41,-28,-14,-2,2,5,8,9,10,8,6,3,1,0,-1,-2,-3,-4,-4,-3,-1,1,4,6,9,11,14,16,17,19,19,19,19,18,18,17,17,16,15,15,14,13,12,11,10,9,7,5,3,1,0,-3,-5,-8,-12,-15,-17,-19,-21,-22,-24,-25,-27,-29,-29,-25,-19,-10,6,15,21,24,27,28,28,27,24,22,17,12,20,45,94,167,273,411,563,691,747,697,535,301,65,-106,-167,-169,-120,-67,-46,-41,-36,-29,-20,-9,2,4,0,-1,-3,-4,-5,-6,-6,-5,-4,-3,-2,-1,0,0,2,3,4,5,5,6,7,8,9,10,11,12,13,15,17,19,24,35,47,54,59,64,67,69,71,72,73,73,74,75,76,77,78,79,80,82,83,86,89,93,100,112,116,118,120,122,123,124,124,125,125,125,125,124,123,121,119,117,114,110,102,94,84,72,62,51,40,28,16,4,-1,-4,-6,-8,-11,-13,-16,-18,-21,-23,-26,-29,-30,-28,-25,-22,-19,-17,-15,-13,-12,-10,-9,-9,-9,-10,-10,-11,-11,-11,-12,-12,-13,-13,-13,-13,-14,-15,-15,-16,-16,-16,-16,-15,-15,-15,-15,-15,-15,-16,-16,-18,-19,-20,-21,-22,-23,-24,-25,-26,-29,-31,-34,-36,-37,-37,-38,-39,-39,-40,-41,-41,-41,-41,-40,-40,-38,-36,-34,-30,-27,-22,-12,-6,-3,0,1,2,2,0,-4,-8,-11,-13,-15,-17,-19,-21,-22,-22,-21,-20,-18,-17,-15,-14,-13,-10,-8,-6,-5,-6,-8,-11,-13,-14,-16,-17,-19,-21,-23,-25,-27,-28,-29,-30,-31,-31,-31,-30,-31,-31,-32,-33,-34,-35,-36,-36,-37,-37,-36,-34,-32,-29,-26,-24,-22,-18,-15,-13,-11,-10,-8,-7,-6,-5,-4,-3,-2,0,1,2,5,15,55,118,208,325,464,601,683,683,603,407,165,-54,-194,-241,-215,-163,-125,-107,-91,-78,-58,-35,-26,-23,-21,-20,-22,-25,-27,-29,-31,-32,-34,-34,-35,-35,-34,-34,-33,-32,-30,-29,-30,-32,-34,-36,-37,-38,-38,-36,-33,-29,-21,-7,4,14,20,23,24,25,25,25,26,26,26,26,26,27,28,29,29,30,30,31,31,32,34,36,39,43,51,57,62,65,68,70,72,73,74,75,75,75,74,73,72,70,68,67,64,60,55,52,48,41,29,20,14,7,0,-6,-10,-13,-16,-19,-20,-22,-23,-24,-25,-26,-28,-29,-28,-26,-24,-23,-21,-20,-19,-18,-17,-16,-15,-15,-15,-15,-16,-16,-16,-17,-17,-18,-19,-19,-19,-17,-13,-9,-7,-3,0,2,2,0,-1,-4,-6,-7,-8,-9,-9,-11,-12,-14,-16,-17,-18,-19,-20,-21,-22,-22,-23,-23,-25,-26,-28,-30,-31,-33,-34,-34,-34,-34,-33,-31,-30,-27,-25,-22,-19,-12,0,3,5,6,7,8,8,9,9,9,9,8,7,6,5,4,3,2,2,1,0,0,-1,-2,-3,-4,-4,-5,-5,-6,-6,-7,-8,-9,-10,-12,-15,-17,-19,-22,-24,-26,-27,-28,-29,-30,-31,-32,-34,-35,-37,-39,-40,-41,-42,-43,-44,-44,-45,-47,-49,-51,-51,-48,-44,-40,-37,-35,-32,-30,-27,-25,-23,-22,-21,-20,-18,-16,-8,12,48,105,187,298,433,566,646,647,575,395,171,-32,-162,-193,-192,-152,-122,-110,-103,-93,-79,-71,-67,-65,-63,-60,-58,-55,-53,-51,-48,-44,-41,-41,-44,-48,-51,-53,-56,-58,-58,-57,-55,-53,-51,-49,-47,-45,-41,-36,-31,-26,-19,-12,-4,3,10,13,15,17,19,21,23,25,26,27,28,29,30,31,32,32,33,34,36,40,44,49,55,61,68,74,80,83,85,88,89,90,91,92,92,92,91,90,89,87,85,82,78,69,61,53,47,41,35,28,20,11,3,-2,-9,-16,-20,-23,-26,-28,-30,-31,-31,-30,-29,-27,-25,-22,-19,-15,-7,-3,-2,0,0,2,2,-1,-5,-8,-10,-12,-13,-15,-16,-16,-17,-17,-16,-16,-15,-14,-13,-12,-11,-9,-8,-7,-7,-9,-13,-17,-21,-24,-29,-33,-36,-38,-40,-41,-42,-42,-43,-43,-44,-45,-46,-47,-48,-49,-50,-51,-52,-53,-54,-57,-62,-64,-61,-54,-49,-44,-39,-34,-29,-24,-17,-15,-16,-16,-16,-16,-16,-17,-18,-18,-19,-20,-20,-21,-22,-23,-24,-24,-24,-23,-22,-21,-19,-16,-14,-11,-9,-7,-5,-4,-2,-2,-2,-4,-7,-10,-13,-15,-17,-19,-21,-22,-24,-25,-26,-27,-29,-30,-31,-32,-32,-32,-31,-31,-30,-30,-28,-27,-26,-25,-23,-22,-20,-18,-15,-8,0,7,14,16,18,19,20,21,21,19,17,11,12,30,70,141,248,390,547,676,737,691,536,306,68,-111,-190,-197,-158,-104,-77,-69,-63,-57,-52,-48,-45,-42,-39,-37,-37,-37,-38,-39,-40,-42,-43,-45,-48,-49,-47,-43,-39,-37,-35,-33,-31,-29,-27,-25,-23,-21,-18,-16,-13,-9,-3,2,7,14,28,35,38,40,42,43,45,46,47,48,50,51,52,53,54,55,56,59,65,71,77,85,94,104,109,113,116,119,121,122,123,124,125,126,127,128,130,132,133,133,131,127,122,115,104,95,82,68,55,40,29,21,16,11,8,6,4,2,0,-2,-5,-8,-10,-11,-12,-13,-14,-15,-16,-17,-17,-18,-19,-20,-20,-20,-20,-19,-19,-18,-17,-16,-15,-14,-13,-13,-12,-12,-11,-10,-9,-9,-9,-8,-8,-7,-6,-6,-5,-5,-4,-4,-4,-4,-5,-6,-7,-9,-11,-13,-15,-17,-19,-21,-24,-26,-29,-31,-33,-34,-35,-35,-35,-33,-32,-29,-27,-25,-23,-21,-17,-13,-9,-5,-1,0,3,6,8,10,11,10,9,8,7,6,5,3,1,0,0,0,0,0,1,3,5,7,9,11,13,14,15,13,10,6,2,0,-3,-6,-9,-11,-14,-17,-19,-21,-22,-24,-25,-27,-28,-29,-30,-31,-32,-33,-35,-37,-39,-40,-41,-43,-44,-47,-50,-53,-54,-52,-49,-44,-36,-22,-13,-6,-3,-3,-2,-2,-2,-1,0,0,2,4,7,17,51,114,211,343,497,638,698,687,568,350,107,-94,-210,-234,-200,-152,-118,-101,-85,-67,-57,-53,-50,-47,-46,-45,-44,-44,-44,-45,-45,-46,-46,-47,-48,-50,-52,-53,-53,-52,-51,-50,-49,-47,-44,-44,-46,-48,-50,-51,-51,-48,-42,-33,-17,-10,-8,-6,-4,-2,0,0,1,2,3,4,5,6,6,7,8,9,11,13,17,21,26,33,40,43,46,48,51,53,55,57,59,60,61,62,62,62,62,61,60,60,58,57,55,53,51,49,43,28,14,0,-10,-15,-18,-21,-24,-26,-28,-30,-31,-32,-33,-35,-37,-40,-42,-42,-39,-35,-31,-28,-25,-23,-21,-18,-17,-16,-16,-17,-17,-18,-18,-19,-20,-21,-22,-23,-22,-21,-19,-18,-18,-17,-16,-15,-14,-13,-13,-12,-12,-12,-12,-12,-13,-15,-17,-19,-22,-25,-27,-30,-32,-33,-35,-36,-38,-39,-41,-42,-44,-45,-46,-47,-47,-47,-47,-46,-46,-44,-43,-41,-38,-36,-34,-28,-14,0,8,13,15,18,20,20,16,11,8,6,3,2,0,0,0,0,0,1,3,5,8,10,12,14,16,18,19,20,21,21,21,21,20,18,16,14,12,10,9,8,6,5,4,3,2,1,0,0,-1,-2,-3,-4,-5,-7,-8,-9,-11,-13,-16,-21,-26,-26,-22,-16,-9,0,8,15,23,29,33,36,38,40,40,39,38,35,32,28,30,46,89,167,282,427,578,695,734,668,502,275,54,-103,-158,-160,-120,-76,-46,-35,-30,-29,-28,-27,-27,-27,-26,-26,-27,-27,-27,-27,-27,-27,-26,-26,-26,-26,-25,-25,-24,-22,-21,-20,-19,-18,-16,-13,-9,-6,-3,-1,0,2,6,13,28,36,38,40,41,43,44,45,46,46,47,48,50,51,52,52,53,54,56,58,60,62,65,71,77,81,85,88,90,92,93,95,96,97,98,98,98,98,98,97,96,95,93,91,89,83,71,58,45,34,25,15,5,-4,-12,-16,-18,-21,-22,-24,-24,-25,-25,-24,-24,-23,-22,-20,-18,-17,-16,-16,-14,-12,-10,-9,-8,-8,-9,-11,-12,-14,-16,-19,-23,-25,-25,-24,-23,-22,-21,-20,-19,-18,-17,-16,-16,-16,-16,-17,-19,-21,-24,-27,-29,-32,-33,-35,-37,-39,-41,-43,-44,-46,-47,-48,-49,-49,-49,-49,-49,-49,-48,-48,-48,-48,-49,-49,-48,-44,-39,-33,-27,-17,-12,-10,-9,-7,-6,-6,-5,-5,-5,-5,-6,-7,-8,-9,-10,-11,-12,-13,-15,-16,-17,-17,-17,-17,-16,-15,-14,-12,-10,-8,-8,-11,-15,-16,-18,-19,-20,-22,-23,-24,-25,-26,-26,-26,-26,-26,-26,-26,-26,-27,-28,-29,-29,-30,-30,-31,-31,-31,-31,-32,-33,-35,-36,-35,-33,-30,-26,-19,-4,5,12,16,17,18,19,21,14,7,0,0,9,32,86,171,294,446,603,722,759,688,512,272,38,-130,-188,-190,-143,-91,-63,-56,-50,-42,-35,-32,-29,-27,-24,-22,-21,-20,-19,-18,-18,-17,-16,-16,-16,-15,-15,-15,-14,-14,-13,-13,-13,-12,-11,-10,-9,-9,-7,-5,-2,2,8,15,20,24,27,31,34,36,37,39,40,42,43,44,45,46,47,48,50,51,52,54,56,59,62,67,73,84,91,97,101,104,108,111,113,116,118,121,122,123,123,122,119,115,111,107,100,94,90,86,79,67,56,48,39,29,20,11,4,0,-2,-5,-8,-11,-14,-16,-19,-22,-24,-25,-24,-22,-19,-16,-14,-11,-8,-6,-5,-6,-8,-10,-13,-14,-16,-17,-19,-20,-22,-22,-22,-22,-21,-20,-19,-17,-16,-15,-13,-11,-10,-11,-14,-18,-22,-25,-29,-33,-37,-39,-41,-42,-43,-44,-44,-45,-45,-46,-46,-47,-48,-48,-49,-49,-49,-49,-49,-49,-50,-51,-51,-52,-54,-54,-48,-41,-34,-27,-19,-12,-7,-5,-4,-3,-2,-1,-1,-1,-2,-3,-4,-4,-5,-6,-7,-9,-10,-11,-12,-12,-13,-13,-13,-13,-12,-11,-10,-9,-12,-17,-19,-21,-22,-23,-24,-25,-26,-26,-27,-27,-27,-27,-27,-27,-27,-27,-27,-27,-26,-26,-25,-24,-23,-22,-21,-20,-18,-17,-15,-14,-13,-10,-4,1,4,9,15,22,27,31,34,35,34,31,27,23,19,17,19,26,46,90,156,249,372,514,649,722,718,622,414,162,-61,-201,-239,-204,-141,-86,-55,-43,-35,-30,-27,-24,-22,-22,-21,-20,-20,-19,-19,-19,-17,-15,-15,-17,-18,-20,-21,-22,-22,-22,-22,-23,-23,-23,-21,-19,-16,-13,-11,-8,-4,2,9,14,17,18,19,20,22,24,26,27,29,30,31,33,34,35,37,39,41,44,47,50,53,56,59,62,65,69,73,76,78,78,77,77,76,75,74,71,69,71,75,79,82,85,86,83,78,71,62,49,40,32,23,12,1,-8,-15,-20,-23,-27,-30,-33,-36,-39,-42,-41,-37,-32,-29,-26,-24,-22,-20,-19,-18,-18,-19,-21,-22,-24,-27,-29,-32,-36,-40,-42,-41,-38,-34,-31,-28,-24,-22,-20,-19,-18,-16,-13,-21,-25,-26,-28,-30,-31,-32,-32,-33,-34,-35,-36,-37,-38,-38,-39,-40,-41,-42,-43,-44,-44,-45,-46,-47,-48,-49,-50,-50,-49,-49,-47,-46,-43,-40,-37,-33,-26,-21,-19,-18,-17,-16,-15,-15,-15,-15,-15,-16,-17,-18,-20,-21,-21,-22,-23,-23,-24,-25,-25,-26,-26,-26,-27,-27,-27,-27,-27,-28,-28,-29,-30,-30,-31,-31,-31,-30,-30,-29,-27,-25,-23,-20,-18,-15,-12,11,68,157,278,421,562,651,654,579,382,138,-83,-227,-277,-251,-192,-134,-90,-61,-43,-22,-3,5,9,12,14,16,16,16,15,12,9,6,3,1,-1,-4,-7,-9,-9,-6,-2,1,4,6,7,9,10,11,12,13,14,15,16,18,20,21,22,23,23,23,23,24,24,26,27,29,32,36,40,44,48,51,55,60,65,69,73,76,79,82,85,88,92,96,100,105,112,121,133,147,155,161,164,164,160,153,143,130,119,106,92,77,61,46,37,31,25,19,12,5,0,-4,-7,-9,-13,-18,-23,-26,-29,-32,-35,-37,-38,-39,-40,-41,-42,-43,-44,-45,-46,-47,-49,-51,-53,-55,-56,-58,-59,-61,-62,-63,-64,-64,-64,-65,-64,-64,-62,-61,-59,-57,-54,-52,-49,-43,-37,-32,-29,-26,-23,-21,-21,-22,-23,-25,-25,-26,-27,-28,-29,-29,-28,-27,-25,-22,-20,-18,-15,-13,-11,-9,-8,-10,-12,-16,-20,-23,-24,-26,-27,-29,-31,-32,-34,-35,-36,-37,-38,-39,-40,-40,-40,-40,-39,-39,-39,-38,-37,-36,-35,-34,-34,-33,-31,-30,-28,-26,-24,-18,-12,-7,0,12,21,26,29,29,26,22,13,1,-6,-12,-12,-2,25,82,167,280,414,548,650,684,625,467,247,27,-135,-205,-211,-175,-122,-81,-69,-65,-64,-62,-60,-57,-53,-44,-32,-25,-21,-19,-22,-29,-35,-43,-50,-54,-56,-58,-59,-61,-62,-62,-63,-62,-61,-60,-58,-56,-54,-50,-44,-38,-32,-26,-20,-14,-8,-3,0,2,4,7,9,11,14,18,24,28,30,32,34,35,36,38,40,43,47,52,61,71,77,81,85,88,91,93,96,97,99,101,103,105,106,105,104,100,96,90,83,70,61,53,44,35,22,7,-4,-11,-18,-25,-29,-31,-34,-36,-37,-38,-39,-39,-38,-38,-36,-35,-33,-31,-29,-27,-25,-22,-18,-16,-16,-18,-22,-25,-28,-31,-34,-36,-38,-38,-37,-34,-31,-28,-26,-24,-22,-20,-18,-16,-15,-13,-12,-11,-11,-12,-13,-13,-14,-15,-17,-18,-20,-21,-22,-23,-23,-24,-25,-26,-27,-27,-28,-30,-31,-33,-34,-34,-34,-33,-33,-32,-31,-30,-28,-26,-24,-22,-21,-19,-15,-5,2,6,8,10,12,14,16,16,16,16,15,15,15,14,13,12,11,10,9,8,7,6,5,5,6,6,7,8,9,10,12,13,12,10,7,3,0,-2,-3,0,8,31,76,146,244,370,511,639,712,688,549,318,53,-171,-284,-297,-253,-173,-123,-106,-99,-96,-85,-55,-23,-10,-4,0,1,4,7,9,12,15,18,19,19,16,11,7,4,0,-2,-5,-6,-6,-5,-2,1,5,9,17,23,24,25,26,26,27,27,27,27,27,27,28,28,28,28,28,29,30,31,32,34,36,38,42,51,61,67,70,72,75,77,79,81,83,85,86,89,91,96,105,111,115,118,121,122,123,122,118,113,106,94,75,61,51,42,31,15,5,0,-3,-5,-6,-6,-4,-2,0,2,6,8,8,3,-2,-6,-10,-14,-17,-19,-21,-22,-23,-24,-25,-25,-26,-27,-27,-28,-29,-29,-30,-30,-30,-30,-30,-30,-31,-31,-31,-30,-30,-31,-31,-32,-32,-33,-33,-34,-35,-34,-26,-19,-12,-5,1,8,15,18,14,7,2,-1,-5,-9,-12,-15,-18,-21,-24,-24,-23,-21,-19,-16,-13,-10,-5,-1,3,5,2,-4,-10,-17,-24,-29,-36,-44,-47,-48,-49,-50,-51,-52,-52,-52,-52,-53,-53,-53,-53,-53,-53,-53,-54,-55,-56,-56,-56,-55,-55,-55,-54,-53,-52,-50,-49,-48,-47,-45,-41,-36,-33,-31,-30,-28,-27,-25,-24,-23,-21,-21,-20,-19,-19,-19,-19,-19,-19,-18,-17,-15,-13,-11,-9,-6,-3,2,21,64,132,236,374,526,653,706,654,493,262,25,-150,-215,-218,-170,-115,-99,-95,-91,-86,-81,-72,-59,-54,-51,-49,-48,-47,-47,-46,-45,-43,-41,-40,-39,-37,-35,-32,-28,-18,-8,-3,0,3,5,7,9,11,12,13,14,15,16,18,20,21,23,26,29,32,36,42,46,47,48,48,49,50,50,50,51,50,50,51,51,51,52,52,53,54,55,56,57,59,61,64,69,74,78,81,82,84,86,87,88,89,88,87,84,81,77,69,54,43,36,31,28,26,25,24,23,22,21,19,17,15,13,11,9,5,0,-4,-6,-7,-8,-10,-12,-13,-13,-12,-9,-6,-3,0,2,0,-6,-11,-15,-19,-21,-23,-23,-24,-24,-25,-26,-27,-27,-27,-27,-27,-28,-29,-29,-29,-29,-29,-30,-32,-33,-34,-35,-36,-37,-39,-40,-42,-44,-44,-44,-42,-39,-36,-32,-26,-16,-7,1,9,13,15,17,18,18,14,9,5,2,-1,-3,-4,-3,-2,-1,0,0,1,2,3,4,4,5,5,6,6,6,5,4,2,1,1,0,0,-2,-4,-5,-7,-8,-10,-12,-14,-16,-18,-20,-22,-23,-25,-27,-28,-30,-31,-33,-34,-34,-34,-33,-32,-30,-29,-26,-23,-20,-16,-7,0,5,9,12,14,12,7,2,-1,-5,-9,-12,-12,-10,-7,-3,5,20,48,95,171,284,429,581,696,728,653,474,234,-2,-173,-226,-224,-161,-103,-74,-65,-60,-56,-53,-52,-51,-51,-50,-49,-49,-48,-48,-47,-47,-47,-47,-46,-46,-46,-45,-44,-44,-44,-43,-42,-40,-38,-37,-35,-33,-30,-23,-15,-5,-1,0,2,4,6,7,8,9,11,12,13,15,15,16,16,16,17,18,19,22,25,32,39,46,50,53,56,58,59,61,62,64,66,67,69,70,71,72,74,75,78,80,82,83,83,81,79,75,70,63,51,41,32,25,18,10,0,-9,-13,-15,-17,-18,-19,-18,-16,-13,-10,-8,-6,-4,-2,0,1,1,2,1,1,0,-1,-3,-5,-7,-8,-9,-10,-11,-11,-12,-13,-14,-15,-16,-17,-17,-17,-17,-17,-18,-18,-18,-19,-20,-21,-22,-24,-26,-27,-29,-30,-31,-32,-33,-33,-34,-36,-38,-40,-42,-43,-44,-45,-45,-44,-42,-40,-37,-34,-30,-26,-22,-15,-9,-7,-5,-4,-3,-1,0,0,1,1,1,0,0,-2,-3,-6,-8,-11,-12,-14,-15,-16,-17,-18,-20,-21,-22,-24,-25,-27,-28,-30,-31,-31,-32,-32,-33,-33,-33,-34,-34,-35,-36,-36,-37,-38,-38,-39,-39,-40,-40,-41,-41,-42,-42,-43,-44,-44,-46,-47,-49,-50,-54,-57,-56,-52,-45,-39,-31,-24,-18,-15,-13,-11,-10,-8,-6,-4,-2,-1,0,1,4,9,28,78,157,272,421,578,704,751,689,521,284,44,-133,-203,-209,-169,-121,-94,-84,-77,-68,-52,-40,-36,-33,-30,-27,-26,-24,-22,-20,-18,-16,-14,-12,-10,-8,-6,-3,-2,0,0,1,3,4,5,6,7,9,11,14,17,21,25,32,44,53,60,67,71,73,74,74,75,76,76,76,76,76,77,78,79,80,80,81,82,83,84,86,92,100,102,104,106,108,109,110,110,110,110,110,110,110,109,109,108,108,108,106,103,99,92,81,71,63,54,46,39,33,27,22,17,12,7,3,0,-3,-5,-6,-7,-8,-10,-9,-1,4,9,13,15,16,18,20,23,23,19,15,13,11,9,10,14,19,24,28,33,38,42,42,43,42,42,41,41,41,41,41,41,40,39,38,36,35,32,30,28,25,23,22,20,18,16,14,13,11,10,9,9,9,9,9,9,9,9,10,10,9,9,10,12,15,19,27,38,41,42,43,44,45,46,46,47,47,47,47,47,47,47,47,46,45,44,43,42,42,41,40,39,37,36,35,33,27,22,19,17,15,14,12,10,7,2,-3,-15,-31,-54,-75,-97,-121,-146,-170,-183,-190,-194,-196,-198,-199,-200,-201,-202,-202,-202,-203,-203,-204,-206,-205,-196,-183,-168,-155,-141,-134,-129,-125,-124,-125,-128,-134,-141,-150,-151,-153,-155,-144,-114,-60,22,135,270,401,478,477,396,207,-24,-238,-385,-432,-434,-395,-355,-328,-315,-304,-290,-273,-258,-249,-243,-236,-229,-224,-221,-218,-216,-213,-211,-209,-208,-206,-204,-198,-183,-171,-166,-162,-158,-156,-153,-151,-148,-145,-142,-137,-131,-120,-104,-89,-74,-61,-52,-43,-39,-36,-35,-33,-32,-31,-30,-29,-27,-26,-25,-24,-23,-22,-21,-19,-15,-11,-6,-1,7,23,37,46,53,57,59,61,63,64,66,68,70,72,75,77,80,84,86,86,84,80,76,70,63,56,48,35,19,4,-12,-25,-36,-46,-57,-67,-71,-73,-74,-76,-76,-74,-70,-64,-57,-47,-33,-27,-24,-21,-18,-16,-15,-14,-13,-11,-10,-8,-7,-5,-4,-3,-1,0,2,5,13,20,27,32,36,40,42,42,40,36,32,31,29,28,27,26,26,24,23,22,21,21,20,20,19,18,18,18,18,18,17,16,15,16,16,17,18,19,20,21,23,25,27,29,31,34,42,49,53,56,59,61,63,65,67,68,68,68,67,64,61,57,53,49,45,42,39,36,33,30,27,25,23,22,21,20,20,19,19,19,19,19,18,18,17,17,16,16,15,15,15,14,14,14,14,13,13,12,11,11,11,12,12,12,13,14,15,18,20,23,25,28,32,45,56,61,63,65,68,70,72,74,77,78,79,80,81,83,86,101,148,221,329,465,603,708,739,669,505,292,86,-56,-106,-110,-80,-54,-39,-25,-11,3,13,16,17,19,20,21,21,21,21,20,19,18,17,16,14,13,12,11,11,11,11,11,12,12,13,15,17,19,23,26,30,37,51,62,69,75,79,80,81,82,82,83,83,83,81,76,72,69,67,64,62,59,58,58,58,59,61,62,63,65,68,70,70,69,66,64,62,61,59,57,55,53,50,48,46,43,40,37,34,31,25,18,11,4,-3,-10,-16,-23,-28,-32,-35,-37,-38,-40,-43,-45,-46,-46,-45,-43,-39,-35,-30,-27,-24,-20,-17,-15,-12,-11,-11,-11,-12,-12,-13,-13,-13,-14,-16,-17,-18,-18,-17,-16,-15,-15,-15,-14,-14,-13,-12,-12,-12,-12,-11,-11,-11,-11,-11,-12,-13,-14,-14,-15,-16,-17,-18,-18,-18,-18,-17,-17,-18,-18,-19,-20,-21,-22,-23,-24,-24,-24,-24,-23,-23,-22,-22,-22,-22,-22,-22,-23,-23,-24,-25,-25,-25,-25,-24,-25,-25,-25,-25,-25,-24,-24,-25,-25,-26,-26,-26,-26,-27,-28,-28,-29,-29,-29,-29,-29,-29,-30,-30,-30,-31,-31,-32,-33,-34,-35,-36,-36,-35,-35,-35,-35,-35,-35,-35,-36,-36,-37,-37,-37,-37,-36,-35,-35,-35,-36,-36,-36,-37,-38,-40,-42,-45,-49,-56,-63,-78,-101,-133,-167,-201,-225,-243,-254,-260,-257,-247,-217,-148,-44,97,260,414,507,509,428,226,-11,-214,-327,-345,-324,-265,-218,-197,-186,-179,-170,-160,-153,-148,-144,-140,-136,-131,-127,-123,-120,-116,-113,-109,-106,-103,-100,-98,-95,-92,-90,-87,-84,-81,-77,-74,-70,-65,-61,-56,-52,-48,-42,-36,-29,-25,-23,-23,-22,-20,-17,-19,-30,-38,-44,-49,-54,-60,-66,-71,-76,-81,-85,-88,-91,-92,-91,-88,-83,-78,-73,-68,-64,-59,-54,-49,-45,-41,-38,-34,-31,-26,-18,-5,2,6,10,13,14,14,12,7,2,-3,-12,-22,-31,-35,-39,-42,-46,-48,-50,-52,-52,-52,-51,-51,-50,-49,-46,-44,-41,-36,-27,-20,-16,-14,-12,-10,-8,-6,-4,-1,0,3,5,8,11,14,17,20,23,27,31,34,37,40,41,42,43,43,44,45,45,46,47,48,49,49,49,49,49,49,49,49,49,49,50,50,51,51,51,51,51,51,51,51,52,52,52,53,55,56,58,60,61,63,67,77,90,95,98,100,102,104,106,107,108,109,110,111,112,113,114,115,115,116,117,118,120,121,122,123,123,124,125,126,127,128,129,130,131,132,133,133,132,132,130,129,128,126,125,123,122,120,119,118,117,115,113,111,109,107,105,102,100,97,95,93,90,86,82,79,79,81,84,87,89,91,94,96,98,98,98,96,94,92,89,84,84,94,121,172,254,371,516,666,780,817,743,560,309,62,-116,-169,-165,-92,-16,20,30,37,41,44,48,51,53,56,58,60,62,63,64,66,68,70,72,74,76,78,80,82,84,86,88,90,93,95,98,100,103,105,108,112,118,128,140,150,158,164,168,172,175,178,179,179,177,174,168,158,141,114,84,53,36,10,-13,-40,-60,-76,-86,-94,-100,-108,-117,-120,-122,-125,-123,-113,-104,-95,-88,-81,-70,-54,-39,-28,-25,-23,-21,-21,-23,-29,-38,-53,-69,-85,-100,-113,-124,-137,-148,-157,-164,-171,-177,-180,-182,-183,-185,-183,-176,-167,-158,-149,-138,-124,-107,-97,-93,-91,-89,-89,-89,-93,-98,-102,-105,-108,-111,-113,-116,-117,-118,-117,-117,-116,-115,-115,-113,-112,-109,-107,-105,-108,-112,-117,-121,-124,-128,-131,-133,-134,-133,-132,-131,-129,-127,-123,-123,-131,-141,-156,-173,-187,-197,-205,-214,-220,-223,-226,-229,-230,-230,-230,-228,-225,-221,-217,-209,-192,-175,-158,-150,-145,-142,-140,-140,-141,-143,-146,-149,-152,-154,-157,-159,-161,-162,-161,-160,-158,-156,-153,-149,-143,-138,-133,-129,-127,-125,-123,-121,-119,-118,-116,-116,-115,-114,-114,-114,-114,-115,-115,-115,-115,-115,-115,-114,-113,-113,-113,-113,-114,-115,-115,-116,-117,-117,-117,-114,-111,-108,-105,-102,-98,-94,-90,-85,-76,-62,-49,-36,-29,-26,-24,-22,-21,-19,-17,-15,-14,-12,-9,2,43,111,210,342,492,629,698,693,598,402,175,-22,-141,-173,-147,-101,-65,-50,-43,-38,-25,-19,-16,-14,-12,-10,-8,-6,-4,-2,0,0,2,3,5,6,7,8,9,11,13,15,17,19,21,22,23,25,27,29,35,51,65,75,82,87,90,93,96,99,102,104,105,106,107,109,110,111,113,114,116,118,120,123,125,128,133,139,143,147,151,154,158,162,166,170,174,178,181,185,189,192,194,195,197,198,200,202,203,201,197,191,185,178,169,159,150,142,134,127,121,114,106,97,87,80,73,67,65,67,71,77,82,88,93,96,98,100,103,104,99,90,85,83,80,78,77,76,75,73,72,70,69,68,66,65,63,62,60,59,59,58,57,55,53,50,48,45,42,38,34,30,26,23,21,18,16,14,13,11,10,8,7,5,4,3,3,2,1,0,0,0,-1,-3,-3,-2,0,3,8,16,27,32,34,35,36,37,37,38,38,37,36,35,34,33,32,31,30,30,29,29,30,30,31,31,31,30,30,29,28,27,25,23,21,19,18,16,15,13,11,9,7,6,4,2,0,-1,-3,-5,-6,-7,-8,-9,-9,-9,-9,-10,-10,-11,-12,-15,-17,-19,-20,-17,-12,-6,1,13,19,23,26,28,30,30,29,27,24,21,16,16,26,51,106,191,309,456,602,696,701,634,448,215,1,-137,-165,-161,-112,-85,-77,-73,-69,-64,-60,-58,-57,-55,-53,-52,-51,-50,-50,-50,-50,-49,-49,-50,-51,-52,-52,-52,-51,-50,-49,-49,-48,-47,-46,-45,-44,-43,-42,-40,-38,-35,-26,-19,-13,-10,-7,-4,-1,0,0,0,-3,-6,-9,-12,-14,-17,-20,-22,-25,-26,-27,-27,-26,-24,-22,-19,-16,-12,-7,0,6,11,13,16,18,20,22,23,24,24,24,24,24,23,21,19,16,13,10,7,3,-3,-12,-19,-27,-34,-40,-45,-50,-54,-56,-59,-61,-64,-66,-67,-65,-60,-55,-52,-49,-47,-45,-43,-42,-41,-40,-40,-40,-41,-41,-42,-42,-42,-42,-43,-45,-46,-46,-46,-44,-42,-40,-39,-38,-37,-37,-36,-35,-35,-34,-33,-33,-34,-34,-35,-35,-36,-38,-40,-41,-43,-44,-45,-45,-46,-46,-47,-48,-48,-49,-50,-51,-52,-53,-54,-53,-53,-52,-50,-47,-43,-38,-33,-26,-11,1,7,10,12,15,16,18,19,20,21,22,23,23,24,25,25,26,26,27,28,29,31,32,34,35,35,36,36,38,40,42,44,45,45,44,43,42,41,40,39,37,36,34,32,31,32,34,36,39,42,44,49,53,56,58,57,55,53,51,48,44,40,40,47,55,60,63,66,68,70,72,75,78,80,82,83,84,85,87,89,92,99,120,167,244,362,518,688,825,876,802,608,343,82,-100,-158,-158,-100,-42,-7,5,16,29,48,58,63,66,70,72,74,75,75,74,74,72,71,69,67,65,63,62,61,59,58,56,53,52,50,50,51,53,56,59,63,66,69,71,74,76,78,79,80,81,81,81,80,80,79,79,79,78,78,77,77,77,77,76,75,75,78,82,87,90,91,93,95,98,100,101,103,104,105,106,106,105,105,104,103,101,100,98,96,94,91,88,80,64,53,45,33,22,13,6,0,-1,-3,-4,-4,-4,-5,-5,-5,-5,-5,-5,-5,-6,-6,-7,-8,-8,-8,-8,-8,-8,-8,-9,-9,-9,-9,-10,-13,-16,-18,-18,-17,-14,-11,-9,-7,-4,-2,-1,0,-2,-4,-7,-9,-11,-13,-15,-18,-20,-22,-24,-26,-27,-29,-30,-32,-33,-34,-35,-37,-38,-40,-42,-44,-45,-46,-47,-47,-46,-44,-42,-40,-38,-36,-33,-31,-29,-28,-27,-27,-26,-25,-24,-23,-21,-20,-18,-17,-16,-15,-14,-14,-14,-14,-14,-14,-14,-15,-14,-14,-14,-13,-11,-9,-7,-7,-8,-11,-15,-20,-27,-32,-35,-37,-39,-41,-42,-43,-43,-44,-44,-44,-44,-44,-44,-45,-45,-46,-46,-47,-48,-49,-49,-50,-51,-52,-52,-53,-54,-57,-59,-58,-55,-50,-42,-28,-18,-12,-8,-7,-6,-6,-6,-6,-6,-5,-4,-2,2,18,58,124,225,362,517,654,724,692,550,327,86,-101,-186,-196,-162,-110,-80,-70,-63,-58,-49,-34,-27,-24,-22,-20,-18,-17,-17,-17,-17,-16,-16,-15,-15,-14,-14,-13,-13,-12,-11,-11,-10,-10,-9,-8,-7,-5,-3,2,8,15,27,42,55,63,66,68,70,71,67,61,58,55,52,50,48,47,47,49,51,54,57,60,63,68,73,75,76,77,77,78,80,80,79,76,73,71,69,69,72,75,78,80,82,84,84,84,82,78,74,67,57,49,41,33,22,12,4,0,-3,-4,-5,-6,-7,-7,-7,-7,-8,-8,-8,-8,-7,-6,-5,-4,-3,-1,1,3,2,0,0,-1,-3,-4,-4,-4,-2,0,2,5,7,11,15,18,19,19,19,19,19,21,20,14,11,9,7,6,4,3,2,0,-1,-2,-3,-3,-4,-5,-6,-7,-9,-10,-12,-13,-16,-18,-21,-25,-29,-38,-56,-75,-92,-106,-116,-118,-121,-123,-123,-119,-117,-116,-115,-115,-114,-114,-114,-113,-112,-111,-110,-109,-108,-107,-106,-104,-102,-99,-96,-92,-83,-76,-70,-67,-64,-62,-61,-60,-58,-56,-55,-53,-52,-51,-49,-48,-47,-46,-44,-43,-42,-41,-39,-37,-35,-33,-30,-26,-22,-18,-14,-12,-10,-9,-8,-7,-6,-4,-3,-2,0,1,3,6,13,26,37,45,55,62,67,71,72,71,69,66,61,56,56,62,80,126,200,308,445,594,722,788,759,625,416,188,3,-97,-118,-89,-46,-18,-5,5,16,37,61,73,77,78,79,80,81,81,82,83,84,86,87,88,89,91,92,94,97,102,106,107,105,102,93,56,3,-54,-111,-167,-223,-278,-329,-368,-381,-386,-385,-378,-370,-362,-354,-343,-329,-316,-307,-300,-289,-276,-263,-251,-239,-226,-214,-201,-186,-170,-157,-147,-138,-130,-121,-112,-104,-95,-87,-80,-73,-63,-52,-42,-35,-29,-24,-19,-13,-9,-5,-2,0,0,-1,-4,-9,-14,-19,-25,-31,-37,-41,-46,-49,-52,-54,-57,-58,-59,-59,-58,-56,-53,-49,-44,-38,-26,-15,-10,-7,-5,-3,-2,-2,-1,0,0,1,3,4,5,7,8,9,10,11,12,15,22,26,27,29,31,33,32,29,24,23,22,21,21,20,18,17,16,15,15,14,14,13,13,13,13,13,12,12,11,10,10,9,7,6,4,2,0,0,0,3,7,12,20,31,33,34,35,36,37,36,35,32,29,26,21,19,22,30,37,42,48,54,60,65,69,73,76,78,80,82,83,84,84,85,84,83,82,80,78,76,74,71,68,65,61,56,52,49,47,46,45,44,44,43,42,42,41,41,41,40,40,40,40,41,43,46,49,51,54,59,69,80,92,103,105,106,107,108,106,101,96,89,90,102,135,201,300,434,591,738,810,803,696,475,216,-6,-143,-179,-136,-63,-11,9,14,15,17,18,19,19,20,19,19,20,20,20,20,21,22,23,24,24,25,26,27,27,28,30,31,33,34,38,42,46,51,54,58,62,67,74,86,99,107,111,114,117,119,121,123,125,126,128,130,131,133,136,139,143,147,151,155,160,166,171,176,180,183,185,186,187,189,190,192,193,194,194,194,194,194,193,191,189,186,183,180,177,173,167,156,146,137,126,113,101,91,84,77,68,60,54,49,45,41,38,35,33,30,28,26,24,22,21,19,17,15,13,11,9,7,3,0,-5,-12,-20,-26,-32,-36,-39,-41,-43,-44,-46,-47,-49,-50,-52,-53,-54,-56,-57,-59,-61,-63,-67,-72,-78,-85,-93,-100,-106,-113,-119,-122,-123,-123,-122,-122,-122,-123,-124,-124,-124,-124,-124,-124,-123,-121,-117,-114,-109,-105,-102,-98,-91,-84,-80,-78,-76,-75,-73,-72,-71,-73,-79,-87,-97,-112,-125,-137,-148,-154,-157,-160,-162,-163,-165,-166,-166,-165,-162,-157,-153,-148,-144,-139,-134,-129,-124,-120,-116,-112,-108,-104,-101,-97,-94,-91,-88,-85,-82,-79,-77,-76,-74,-72,-69,-65,-61,-56,-50,-44,-39,-34,-30,-26,-21,-17,-13,-8,-2,5,20,34,46,57,63,68,71,73,74,76,77,79,81,83,87,92,99,130,185,266,378,515,657,768,803,727,547,308,79,-80,-129,-129,-80,-33,-11,1,10,14,17,19,20,21,23,25,26,27,28,29,30,31,32,32,32,32,33,34,36,37,39,41,43,45,46,48,50,52,55,58,63,72,82,93,103,114,124,135,141,145,148,150,152,153,154,156,157,159,161,163,165,167,169,170,171,172,172,173,173,174,175,176,178,179,180,181,182,182,182,182,181,179,177,175,173,171,169,166,163,159,150,141,132,124,117,109,98,88,78,69,61,56,52,49,48,47,47,46,45,45,44,44,43,42,41,40,39,38,38,38,38,38,38,39,39,39,39,39,39,38,38,37,36,36,36,36,35,35,35,34,33,32,30,28,25,23,20,18,15,11,7,3,0,-4,-7,-10,-13,-16,-18,-20,-23,-25,-28,-31,-33,-35,-36,-37,-38,-38,-38,-38,-38,-38,-38,-40,-41,-42,-39,-33,-27,-23,-18,-13,-9,-9,-11,-15,-20,-26,-32,-39,-46,-53,-62,-74,-88,-105,-128,-147,-160,-173,-179,-183,-186,-189,-191,-194,-197,-201,-204,-208,-213,-221,-234,-247,-259,-271,-284,-289,-293,-297,-300,-303,-304,-305,-306,-306,-306,-306,-306,-304,-302,-299,-296,-294,-291,-288,-285,-279,-272,-265,-259,-252,-242,-229,-218,-207,-197,-192,-190,-188,-187,-186,-185,-183,-181,-177,-174,-169,-161,-130,-70,18,141,290,438,534,541,476,292,59,-156,-301,-336,-332,-274,-221,-184,-171,-162,-156,-152,-149,-147,-145,-141,-137,-133,-129,-125,-122,-119,-116,-113,-110,-107,-105,-102,-99,-97,-94,-91,-89,-87,-84,-80,-75,-70,-64,-59,-53,-45,-33,-15,4,14,20,25,28,32,35,38,40,42,44,46,48,51,54,57,60,64,69,74,78,81,84,87,89,90,92,93,96,98,101,104,106,107,109,111,113,114,116,117,121,125,130,132,132,129,124,118,112,107,102,97,92,86,81,76,72,68,63,59,56,52,48,45,42,40,40,43,48,54,59,64,68,71,75,78,81,85,87,90,92,94,96,97,99,99,100,100,100,100,100,100,100,101,102,103,103,102,98,91,83,76,66,57,48,41,38,35,33,32,31,30,30,30,30,29,28,27,25,25,24,22,21,19,17,16,14,11,8,1,-14,-18,-21,-23,-26,-28,-30,-29,-27,-23,-20,-18,-16,-14,-12,-10,-8,-6,-4,-2,0,2,4,6,9,12,15,19,23,28,33,37,42,45,49,52,54,57,59,61,64,66,68,69,71,71,71,70,69,67,65,62,59,56,53,49,46,42,38,34,31,27,23,19,15,11,7,3,0,-4,-8,-12,-16,-20,-24,-27,-30,-33,-37,-41,-48,-54,-56,-58,-59,-61,-64,-49,-4,70,186,344,516,656,714,660,497,268,38,-135,-214,-224,-199,-153,-126,-114,-110,-107,-104,-103,-101,-100,-99,-98,-97,-96,-94,-93,-92,-92,-92,-92,-92,-92,-92,-92,-91,-91,-89,-85,-85,-97,-130,-165,-204,-230,-254,-270,-275,-280,-284,-269,-243,-212,-186,-167,-156,-144,-133,-119,-108,-100,-91,-82,-73,-62,-50,-41,-33,-27,-21,-15,-9,-2,3,11,16,15,10,1,-12,-33,-53,-76,-96,-109,-112,-112,-112,-112,-103,-96,-91,-88,-84,-80,-77,-74,-72,-70,-68,-67,-67,-66,-66,-66,-65,-64,-62,-61,-61,-60,-60,-58,-57,-55,-52,-49,-45,-36,-15,-2,6,12,17,19,21,23,25,26,27,27,27,26,26,25,24,23,20,18,19,24,31,34,36,37,38,40,41,43,44,46,48,50,51,52,52,53,53,54,54,55,56,58,60,63,65,68,69,70,71,71,71,71,70,69,68,66,65,64,61,56,57,64,70,74,78,83,87,91,95,98,102,106,108,110,112,114,121,119,93,58,21,-13,-48,-86,-125,-164,-189,-197,-202,-202,-197,-191,-184,-177,-169,-162,-154,-147,-139,-131,-118,-100,-83,-72,-63,-57,-51,-43,-33,-26,-19,-14,-9,-4,0,5,12,19,26,30,33,36,38,40,43,45,48,51,54,58,65,71,78,82,85,88,90,91,90,87,84,80,75,67,67,74,94,145,224,338,488,656,800,866,813,636,376,108,-89,-167,-172,-124,-63,-28,-15,-5,6,24,34,39,43,46,47,46,44,42,40,39,38,37,35,33,31,30,29,29,29,29,30,31,32,34,36,39,42,45,49,55,68,78,84,88,92,96,100,104,107,110,113,116,119,122,125,129,133,137,142,147,153,159,166,173,181,188,195,201,205,207,209,211,213,215,217,218,219,220,220,220,220,220,219,217,215,212,210,207,204,200,194,178,161,143,126,114,104,97,89,80,71,67,65,63,61,59,59,58,58,57,56,55,54,53,52,51,49,47,46,45,44,44,43,42,41,39,38,37,35,32,29,25,22,20,17,14,12,10,7,5,2,-1,-7,-15,-22,-30,-36,-40,-43,-46,-49,-51,-53,-55,-57,-59,-61,-64,-66,-69,-71,-74,-77,-82,-88,-93,-97,-101,-105,-109,-112,-115,-116,-116,-113,-108,-103,-93,-74,-63,-57,-52,-50,-49,-51,-55,-61,-66,-72,-79,-86,-89,-91,-92,-93,-94,-95,-97,-97,-97,-96,-94,-92,-90,-88,-86,-84,-82,-81,-81,-81,-82,-84,-85,-87,-88,-89,-90,-92,-93,-94,-94,-95,-96,-97,-97,-97,-96,-96,-96,-96,-96,-95,-95,-94,-93,-92,-91,-90,-88,-85,-82,-79,-75,-69,-54,-39,-27,-15,-10,-8,-6,-4,-2,-2,-5,-8,-12,-17,-17,-3,33,94,183,303,445,583,673,678,615,433,202,-14,-161,-200,-197,-145,-101,-86,-77,-71,-63,-53,-43,-40,-38,-36,-35,-34,-33,-33,-32,-32,-32,-32,-32,-32,-32,-33,-33,-33,-32,-31,-30,-29,-27,-26,-24,-21,-18,-16,-13,-10,-6,3,12,16,19,21,22,24,25,27,29,30,31,33,35,37,39,40,42,44,45,46,48,50,52,54,57,60,63,65,68,70,72,73,73,74,73,73,72,71,70,69,67,66,64,62,60,57,54,48,41,34,27,20,12,3,-7,-16,-23,-29,-33,-36,-39,-41,-43,-44,-44,-44,-44,-44,-43,-43,-42,-42,-42,-41,-41,-40,-40,-40,-40,-40,-41,-42,-43,-44,-45,-47,-48,-50,-51,-52,-50,-48,-45,-42,-39,-36,-33,-30,-28,-26,-25,-24,-24,-23,-23,-21,-19,-17,-18,-23,-28,-31,-32,-35,-37,-39,-40,-42,-43,-44,-44,-44,-43,-41,-39,-38,-36,-33,-30,-27,-23,-19,-14,-9,-2,5,16,22,21,20,19,19,19,20,20,20,20,20,20
