-69,-89,-108,-125,-135,-142,-147,-152,-156,-161,-167,-174,-181,-189,-197,-208,-217,-222,-222,-222,-222,-223,-224,-224,-224,-224,-219,-212,-204,-197,-191,-185,-179,-174,-168,-162,-156,-152,-148,-144,-140,-136,-132,-128,-125,-122,-120,-118,-116,-113,-110,-107,-99,-94,-99,-114,-156,-207,-268,-334,-396,-418,-433,-433,-403,-358,-306,-253,-200,-147,-128,-119,-112,-117,-121,-122,-124,-124,-125,-125,-124,-124,-124,-123,-122,-120,-117,-115,-114,-112,-111,-110,-109,-109,-113,-119,-125,-132,-136,-140,-144,-147,-151,-154,-157,-160,-164,-167,-171,-174,-178,-181,-184,-186,-188,-190,-192,-194,-196,-199,-202,-204,-207,-209,-211,-213,-213,-214,-214,-214,-213,-212,-210,-208,-207,-206,-205,-203,-201,-198,-195,-192,-188,-183,-169,-155,-140,-122,-102,-86,-65,-39,-14,9,32,56,77,92,109,123,135,148,162,169,174,178,182,185,188,190,193,195,197,199,200,201,202,203,205,207,209,210,212,213,214,214,213,208,202,195,188,183,180,177,174,171,168,165,163,160,157,154,152,150,149,148,146,145,143,142,141,140,140,139,138,138,138,139,139,140,140,140,140,141,141,141,141,141,140,140,140,140,140,139,139,138,139,139,139,139,139,139,139,139,138,137,136,135,133,133,132,131,130,130,130,130,129,128,127,126,124,122,120,118,116,113,110,106,103,99,95,91,87,82,77,72,68,64,61,58,57,57,59,61,63,67,70,74,78,82,86,90,95,99,103,107,110,111,111,110,109,108,106,104,102,99,96,93,89,83,76,71,66,60,35,-18,-83,-152,-214,-253,-266,-265,-249,-207,-151,-85,-12,50,84,96,100,89,70,61,55,50,46,42,39,36,32,29,26,24,23,22,21,21,20,18,17,15,12,7,-4,-21,-29,-34,-37,-40,-42,-44,-47,-50,-53,-55,-58,-60,-62,-65,-68,-71,-74,-77,-81,-85,-90,-95,-100,-105,-110,-116,-123,-134,-143,-148,-152,-154,-156,-158,-160,-161,-162,-163,-163,-163,-162,-160,-156,-152,-147,-142,-137,-131,-123,-114,-105,-96,-86,-71,-50,-32,-13,4,22,38,51,65,79,90,99,106,111,115,118,120,122,124,127,129,130,131,130,128,125,121,117,114,110,107,103,100,97,94,92,89,87,84,81,78,74,70,65,60,54,48,41,35,27,19,7,-4,-14,-23,-30,-35,-40,-45,-49,-52,-55,-57,-58,-60,-60,-60,-60,-60,-61,-61,-62,-62,-62,-62,-62,-62,-61,-61,-61,-60,-60,-60,-60,-60,-61,-62,-65,-67,-70,-73,-76,-79,-82,-86,-89,-91,-93,-95,-97,-99,-101,-103,-104,-107,-109,-111,-114,-115,-117,-118,-120,-121,-123,-124,-125,-126,-128,-130,-132,-136,-139,-143,-146,-149,-151,-152,-152,-149,-145,-140,-135,-129,-123,-118,-114,-110,-107,-103,-99,-95,-92,-88,-85,-83,-81,-79,-78,-78,-79,-80,-81,-83,-85,-87,-90,-93,-98,-102,-107,-137,-179,-238,-312,-398,-481,-530,-532,-488,-376,-237,-104,-24,2,-14,-44,-73,-81,-82,-84,-86,-88,-90,-92,-95,-97,-98,-98,-98,-98,-98,-98,-98,-98,-98,-99,-99,-99,-99,-98,-98,-98,-98,-98,-98,-98,-98,-98,-99,-99,-100,-100,-101,-101,-101,-102,-103,-103,-104,-105,-106,-106,-107,-108,-109,-110,-111,-112,-114,-115,-117,-118,-121,-124,-127,-131,-134,-137,-139,-140,-139,-138,-136,-132,-128,-123,-118,-111,-99,-86,-74,-62,-49,-37,-25,-10,5,22,44,71,91,107,126,142,155,169,182,193,203,211,216,220,223,224,226,227,228,229,230,231,232,232,232,232,231,231,230,228,226,223,220,217,214,211,207,205,202,200,197,195,193,190,187,184,181,179,177,175,173,171,170,169,167,165,164,162,161,160,158,156,155,153,149,144,139,133,127,120,113,107,102,97,93,89,85,81,77,73,69,65,61,58,55,52,50,48,46,45,44,42,41,39,38,37,35,34,34,33,33,34,34,35,35,36,36,37,37,37,38,37,36,36,35,33,30,28,25,22,19,15,10,4,0,-4,-7,-8,-7,-3,0,5,10,15,19,23,27,30,33,35,36,37,37,37,36,35,34,33,31,30,30,30,30,29,29,28,27,26,25,23,22,18,0,-45,-108,-189,-287,-391,-473,-501,-486,-440,-321,-187,-69,-9,10,-7,-37,-66,-78,-84,-89,-93,-97,-102,-106,-110,-114,-118,-121,-124,-127,-130,-133,-135,-138,-141,-143,-146,-149,-152,-155,-158,-161,-164,-166,-169,-171,-173,-176,-179,-182,-187,-191,-194,-197,-200,-201,-202,-202,-202,-203,-204,-206,-210,-213,-215,-215,-213,-211,-207,-204,-201,-200,-199,-199,-199,-200,-201,-201,-200,-199,-197,-195,-193,-190,-187,-182,-176,-163,-151,-139,-125,-108,-96,-79,-60,-42,-20,7,32,56,77,95,116,131,140,147,153,158,162,165,166,167,168,168,168,169,169,170,172,175,177,180,183,185,188,190,192,195,199,203,208,212,215,217,219,219,219,218,216,215,214,213,213,213,211,205,199,196,192,189,185,181,178,175,172,169,166,164,162,160,158,156,154,152,150,148,146,145,144,142,141,140,138,137,135,133,131,129,127,124,121,119,117,115,113,112,111,111,111,110,111,112,112,112,112,112,112,112,111,111,111,111,110,109,108,106,104,102,100,97,94,90,86,82,77,73,69,64,59,54,49,44,40,36,32,28,25,21,19,17,17,17,18,20,22,26,29,34,40,51,62,72,82,91,98,103,106,108,111,113,113,109,102,94,88,81,74,68,63,60,56,49,37,12,-42,-125,-230,-343,-443,-486,-480,-400,-249,-78,58,116,118,70,1,-43,-59,-64,-62,-60,-59,-58,-56,-55,-54,-58,-64,-73,-82,-96,-105,-112,-116,-119,-122,-124,-127,-129,-131,-133,-134,-136,-140,-144,-154,-174,-184,-190,-195,-200,-207,-213,-219,-224,-228,-232,-235,-239,-242,-245,-248,-251,-255,-259,-263,-269,-275,-279,-282,-285,-287,-289,-291,-293,-295,-297,-298,-298,-297,-297,-295,-294,-291,-288,-285,-282,-278,-272,-261,-250,-240,-225,-201,-175,-149,-122,-97,-73,-50,-26,-3,16,31,46,61,75,89,95,98,101,103,105,106,108,109,111,112,113,114,114,114,113,113,113,112,111,110,109,107,105,103,101,98,95,92,88,83,70,59,48,40,33,27,20,16,12,6,0,-7,-14,-21,-29,-37,-44,-49,-54,-57,-59,-60,-62,-64,-66,-67,-69,-71,-73,-74,-75,-76,-76,-77,-77,-77,-78,-78,-79,-80,-81,-83,-83,-83,-83,-84,-85,-88,-92,-100,-122,-137,-145,-152,-159,-166,-172,-177,-182,-188,-192,-196,-199,-201,-202,-204,-206,-208,-211,-214,-217,-218,-218,-218,-218,-218,-217,-218,-219,-221,-224,-227,-229,-231,-232,-231,-229,-226,-222,-218,-213,-208,-204,-200,-193,-186,-179,-176,-174,-172,-171,-171,-172,-172,-173,-173,-174,-174,-173,-170,-166,-162,-159,-155,-149,-139,-139,-147,-167,-217,-292,-384,-476,-520,-516,-446,-319,-177,-57,-4,12,-1,-43,-78,-89,-95,-96,-97,-99,-99,-98,-97,-96,-96,-95,-95,-95,-95,-94,-95,-96,-96,-97,-98,-99,-100,-101,-101,-102,-104,-106,-107,-107,-108,-108,-108,-108,-108,-108,-108,-108,-109,-109,-109,-110,-110,-109,-108,-107,-107,-106,-106,-105,-104,-103,-102,-100,-99,-97,-94,-92,-90,-88,-86,-81,-75,-70,-66,-63,-60,-57,-53,-48,-43,-36,-27,-18,-7,2,11,24,44,65,87,106,120,132,147,168,185,195,206,217,230,246,262,278,294,310,317,322,327,330,334,336,339,340,340,338,335,331,327,322,317,314,311,309,307,305,303,300,298,294,292,290,289,289,288,288,289,289,288,288,289,289,289,288,288,289,289,288,287,286,286,284,280,275,267,257,247,239,231,223,215,207,202,197,192,187,184,181,179,175,171,168,165,162,159,155,152,148,144,140,135,129,124,118,113,108,103,98,93,89,85,82,80,79,77,76,75,74,72,70,69,67,64,62,60,58,56,53,49,46,42,34,21,8,-4,-17,-33,-40,-44,-49,-53,-57,-59,-61,-62,-62,-60,-57,-54,-51,-47,-42,-37,-32,-24,-11,0,5,10,13,16,18,19,21,21,20,17,13,8,3,-3,-14,-25,-36,-52,-76,-115,-167,-243,-338,-436,-515,-532,-520,-435,-308,-178,-82,-46,-49,-77,-103,-112,-115,-117,-120,-123,-125,-125,-125,-125,-125,-126,-126,-126,-127,-128,-129,-131,-133,-134,-136,-137,-138,-140,-142,-145,-147,-148,-149,-150,-153,-156,-160,-165,-170,-175,-179,-182,-185,-186,-187,-187,-188,-189,-191,-193,-195,-197,-197,-196,-195,-194,-194,-194,-194,-195,-196,-196,-195,-194,-192,-189,-186,-184,-183,-182,-179,-175,-171,-165,-158,-152,-148,-144,-134,-114,-91,-66,-38,-11,12,39,70,97,123,143,152,156,159,159,157,153,146,139,134,127,119,115,114,119,127,136,148,163,171,175,177,180,182,182,179,174,170,167,165,162,159,158,157,157,157,157,157,157,157,157,157,155,154,153,152,151,150,149,147,145,149,159,170,184,196,213,235,255,270,285,297,307,311,313,314,316,318,319,320,319,316,313,308,303,298,291,284,277,270,265,260,255,251,246,241,236,229,222,215,208,200,191,179,165,156,149,144,139,134,129,122,113,104,95,84,72,59,50,43,37,30,24,18,9,-2,-14,-29,-49,-70,-91,-104,-112,-119,-126,-132,-138,-145,-152,-160,-169,-177,-181,-184,-188,-192,-195,-196,-198,-200,-202,-202,-204,-205,-206,-208,-211,-215,-219,-225,-232,-239,-246,-253,-262,-270,-278,-287,-300,-312,-343,-382,-433,-498,-580,-673,-758,-815,-821,-789,-694,-582,-492,-463,-470,-532,-616,-692,-736,-750,-759,-768,-773,-777,-784,-793,-806,-811,-814,-818,-821,-823,-825,-825,-825,-825,-824,-822,-821,-818,-816,-814,-811,-808,-805,-801,-797,-792,-786,-779,-771,-765,-759,-753,-746,-740,-734,-728,-717,-702,-691,-676,-658,-640,-618,-593,-571,-556,-544,-533,-518,-500,-484,-472,-461,-447,-427,-407,-383,-357,-332,-312,-292,-275,-263,-253,-244,-237,-231,-222,-212,-194,-173,-144,-112,-71,-41,-7,24,53,81,109,132,156,179,205,227,248,271,290,305,320,336,352,369,378,384,389,390,393,397,400,404,408,413,418,422,425,431,434,438,441,446,451,457,462,470,476,479,480,480,480,482,481,482,486,481,472,465,460,455,451,446,441,437,431,427,424,423,424,420,418,417,416,415,414,414,414,414,415,415,414,412,410,408,407,406,404,401,397,393,386,378,370,362,354,347,343,339,335,330,325,322,319,315,312,309,306,303,298,293,288,282,277,270,263,256,247,237,227,219,211,203,195,189,186,182,173,168,164,161,158,155,153,153,150,148,146,146,147,149,152,161,168,172,176,179,183,185,185,182,177,172,168,164,161,159,157,155,154,152,151,150,146,140,130,96,37,-41,-134,-233,-313,-339,-331,-263,-156,-44,29,56,58,41,28,20,14,7,0,-6,-11,-16,-23,-32,-42,-55,-66,-77,-86,-92,-99,-107,-112,-117,-124,-134,-142,-150,-158,-164,-167,-175,-179,-180,-184,-186,-189,-192,-193,-196,-197,-203,-207,-213,-218,-228,-228,-231,-236,-238,-241,-242,-246,-250,-252,-254,-254,-254,-254,-256,-260,-269,-286,-309,-332,-356,-373,-390,-407,-416,-421,-426,-432,-435,-432,-423,-414,-404,-391,-377,-363,-349,-335,-319,-303,-284,-262,-240,-222,-209,-194,-179,-166,-156,-148,-137,-125,-117,-113,-109,-106,-103,-100,-96,-93,-90,-88,-86,-84,-82,-80,-78,-76,-75,-73,-71,-70,-69,-69,-68,-67,-67,-66,-65,-63,-61,-59,-58,-57,-57,-58,-58,-59,-59,-59,-59,-59,-60,-61,-61,-59,-58,-56,-52,-48,-45,-41,-37,-34,-30,-26,-18,-7,2,12,24,34,41,46,52,56,61,67,72,75,74,73,72,73,73,74,76,78,80,83,82,80,79,80,81,80,79,76,72,70,69,68,65,64,64,63,61,59,56,53,50,48,42,29,16,6,-2,-15,-29,-43,-57,-63,-66,-70,-74,-78,-81,-85,-88,-90,-91,-91,-90,-89,-90,-90,-89,-86,-82,-77,-71,-66,-62,-58,-55,-54,-52,-50,-47,-45,-44,-43,-44,-46,-48,-49,-50,-52,-55,-60,-68,-79,-124,-184,-265,-362,-459,-516,-535,-508,-425,-301,-176,-88,-56,-68,-91,-127,-155,-170,-184,-195,-203,-209,-213,-215,-216,-217,-220,-222,-223,-225,-226,-225,-223,-222,-221,-218,-215,-214,-212,-210,-206,-200,-194,-189,-186,-185,-183,-182,-181,-179,-177,-175,-173,-171,-170,-169,-169,-167,-165,-164,-163,-162,-161,-160,-159,-157,-153,-150,-147,-143,-137,-131,-124,-116,-110,-104,-100,-97,-95,-94,-91,-89,-87,-88,-89,-89,-85,-79,-66,-42,-24,-9,3,15,26,38,55,75,100,128,154,185,222,258,293,329,357,375,386,393,396,398,401,404,406,407,407,406,403,397,391,384,374,366,361,356,350,344,339,335,332,330,328,329,331,334,334,330,326,315,289,259,230,200,162,138,126,115,107,104,102,100,100,101,102,100,98,100,115,138,172,207,242,265,280,290,290,288,286,284,285,286,287,281,270,261,253,249,243,240,237,230,226,220,213,203,198,193,185,177,169,162,155,151,148,146,141,137,134,129,121,109,99,88,78,66,55,44,32,20,9,-1,-12,-22,-30,-34,-37,-41,-42,-44,-47,-47,-46,-45,-44,-44,-45,-46,-47,-50,-52,-55,-59,-62,-65,-68,-72,-75,-79,-80,-81,-81,-82,-82,-82,-83,-82,-85,-93,-121,-175,-256,-346,-438,-501,-523,-496,-416,-277,-142,-35,3,2,-50,-94,-105,-111,-116,-118,-119,-115,-113,-113,-110,-110,-115,-115,-117,-119,-117,-118,-118,-120,-127,-128,-131,-135,-142,-147,-152,-160,-167,-173,-177,-180,-184,-185,-187,-190,-190,-191,-192,-193,-193,-194,-194,-193,-193,-192,-193,-195,-196,-197,-199,-203,-207,-209,-212,-217,-223,-228,-231,-231,-228,-224,-219,-214,-211,-206,-201,-195,-191,-186,-182,-179,-175,-171,-164,-151,-140,-124,-105,-88,-71,-52,-34,-16,1,19,37,53,70,82,89,96,104,112,116,120,122,124,126,127,129,130,131,133,136,138,140,142,145,152,158,162,165,168,171,172,168,160,150,138,129,119,103,89,78,71,67,65,63,62,62,61,61,60,62,64,67,70,73,76,79,82,86,91,95,100,106,111,114,117,120,124,126,128,129,128,126,123,119,115,111,108,107,106,105,104,104,103,103,103,102,102,103,103,105,104,102,100,96,90,78,65,53,40,33,28,27,25,23,20,19,17,15,15,15,17,19,22,24,25,28,31,40,51,57,61,65,68,71,73,75,77,79,81,83,85,88,92,97,101,103,106,109,112,105,85,51,-4,-82,-175,-267,-318,-319,-264,-151,-22,87,145,154,136,95,78,72,75,77,78,77,74,71,69,68,67,68,70,72,75,79,82,77,69,66,64,60,58,56,52,49,46,46,45,42,39,31,13,0,-11,-19,-27,-35,-43,-52,-60,-69,-76,-82,-86,-90,-93,-96,-99,-102,-105,-107,-109,-113,-121,-136,-144,-148,-153,-156,-158,-157,-155,-153,-151,-147,-143,-139,-133,-127,-121,-116,-104,-89,-76,-63,-50,-34,-16,0,19,35,59,88,111,131,152,167,178,185,186,188,188,189,189,188,187,185,190,191,194,195,196,198,200,204,204,206,209,210,212,212,213,212,210,210,212,215,216,217,218,218,219,220,221,222,224,226,228,230,232,233,234,233,230,227,223,218,211,198,187,176,164,151,141,134,128,122,118,113,106,96,86,77,71,66,60,55,51,47,44,41,37,34,30,26,20,11,2,-4,-13,-23,-34,-43,-50,-55,-59,-62,-64,-65,-67,-69,-72,-75,-78,-82,-86,-92,-102,-111,-119,-128,-139,-152,-166,-178,-191,-202,-211,-219,-227,-232,-235,-239,-242,-244,-246,-246,-246,-245,-244,-242,-239,-235,-230,-222,-203,-188,-176,-164,-156,-152,-148,-145,-142,-140,-137,-134,-132,-128,-122,-112,-102,-90,-76,-66,-60,-67,-89,-138,-211,-310,-422,-516,-560,-519,-433,-301,-181,-98,-72,-73,-105,-149,-186,-204,-212,-218,-221,-221,-214,-206,-202,-199,-197,-195,-193,-190,-188,-187,-186,-186,-186,-186,-185,-185,-185,-184,-185,-184,-184,-183,-182,-181,-178,-176,-168,-156,-141,-130,-126,-123,-121,-120,-120,-122,-126,-132,-142,-159,-168,-173,-175,-179,-181,-183,-185,-186,-187,-187,-186,-186,-186,-186,-186,-187,-188,-189,-188,-186,-184,-181,-179,-176,-173,-169,-165,-160,-154,-146,-132,-119,-101,-78,-55,-32,-10,10,25,36,50,61,71,81,92,102,110,118,126,134,139,142,146,149,152,156,160,164,168,172,175,178,180,182,183,185,187,188,188,189,190,191,192,193,193,194,194,193,192,192,191,190,188,187,186,185,183,182,181,180,178,177,174,168,159,151,142,133,122,111,98,90,83,77,73,71,69,67,65,62,60,57,54,51,47,43,40,37,36,34,33,31,30,29,28,26,26,25,26,27,29,30,32,33,35,36,38,38,39,41,42,43,43,42,38,32,25,16,2,-14,-30,-47,-62,-71,-76,-81,-84,-86,-87,-87,-86,-82,-78,-73,-68,-61,-48,-38,-29,-23,-19,-15,-12,-9,-4,0,5,9,14,19,24,28,32,36,38,39,39,39,37,35,31,26,7,-39,-109,-203,-309,-397,-417,-401,-295,-138,4,100,120,113,61,26,13,14,22,30,37,40,33,19,11,5,0,-3,-8,-13,-17,-21,-25,-28,-33,-40,-44,-45,-44,-44,-45,-45,-46,-47,-48,-49,-50,-52,-54,-56,-58,-59,-61,-64,-66,-69,-72,-75,-79,-82,-86,-91,-99,-114,-128,-143,-157,-172,-186,-197,-205,-211,-214,-216,-217,-218,-220,-221,-222,-222,-222,-222,-222,-221,-219,-217,-214,-211,-208,-205,-203,-200,-197,-194,-190,-187,-183,-180,-177,-172,-166,-157,-140,-123,-108,-96,-83,-71,-65,-62,-58,-56,-54,-52,-50,-49,-47,-45,-43,-41,-40,-38,-37,-34,-31,-28,-24,-19,-14,-9,-7,-5,-4,-4,-3,-3,-2,-2,-2,-2,-2,-2,-3,-5,-7,-9,-12,-13,-15,-17,-18,-20,-21,-22,-22,-21,-20,-18,-16,-13,-9,-5,-2,0,2,4,6,8,10,11,12,13,14,14,14,14,14,13,13,13,13,13,13,14,13,13,13,12,11,10,9,8,7,5,4,3,3,1,0,0,-2,-3,-5,-7,-10,-13,-16,-19,-23,-29,-35,-40,-44,-46,-47,-47,-47,-47,-47,-47,-46,-46,-45,-42,-27,-13,0,11,22,29,34,38,42,45,48,51,54,57,60,64,67,71,74,77,79,82,84,85,87,88,88,90,93,98,82,36,-29,-119,-226,-334,-403,-406,-350,-215,-54,89,168,176,143,103,92,85,80,73,66,59,52,47,41,35,31,27,27,27,28,29,30,32,34,36,39,42,45,47,48,45,39,32,25,20,14,9,3,-1,-6,-8,-11,-13,-16,-19,-24,-30,-39,-51,-63,-74,-81,-83,-84,-85,-85,-86,-86,-87,-87,-86,-84,-81,-77,-73,-69,-66,-63,-60,-57,-55,-53,-50,-47,-44,-41,-38,-35,-31,-26,-19,-6,6,17,31,48,62,77,91,105,124,145,165,185,204,223,240,252,265,279,291,295,297,299,300,301,302,301,299,294,289,283,278,271,264,258,252,246,241,237,234,231,229,228,226,225,225,225,224,224,224,225,225,226,227,228,230,231,232,233,234,234,234,233,232,229,226,223,220,217,214,211,206,199,193,186,180,173,166,158,150,143,136,130,125,120,115,110,106,102,99,97,95,92,90,87,85,83,81,78,74,69,61,46,34,24,17,10,2,-6,-13,-19,-25,-31,-36,-41,-48,-61,-82,-98,-110,-126,-137,-145,-152,-155,-152,-145,-138,-135,-132,-129,-127,-125,-124,-122,-120,-118,-117,-115,-114,-114,-113,-112,-111,-111,-110,-109,-108,-107,-105,-104,-104,-104,-103,-103,-102,-101,-98,-90,-89,-97,-117,-169,-249,-361,-494,-613,-662,-652,-552,-380,-190,-39,11,11,-43,-112,-144,-154,-159,-162,-163,-163,-160,-155,-151,-146,-142,-136,-130,-125,-123,-123,-123,-123,-123,-122,-121,-122,-130,-140,-146,-152,-156,-161,-165,-170,-173,-177,-180,-182,-185,-188,-192,-196,-200,-205,-209,-211,-213,-216,-218,-220,-222,-223,-225,-227,-228,-230,-231,-231,-232,-233,-234,-235,-236,-236,-236,-236,-235,-235,-234,-232,-231,-229,-227,-224,-222,-219,-216,-210,-194,-180,-167,-154,-138,-122,-106,-90,-69,-43,-23,-7,7,22,36,51,71,97,110,115,119,123,126,128,131,133,135,137,138,140,141,142,143,146,149,150,149,145,139,135,134,133,132,131,130,129,128,128,128,128,128,128,128,128,129,130,130,131,131,131,131,131,131,130,129,127,126,124,122,120,117,114,111,109,106,104,102,100,97,94,92,90,88,85,83,80,78,76,76,75,75,74,74,74,75,75,76,76,75,75,74,74,74,73,71,69,68,66,60,45,29,16,6,-3,-13,-23,-36,-53,-70,-78,-83,-87,-91,-93,-95,-96,-95,-93,-89,-85,-80,-75,-70,-62,-53,-41,-29,-21,-13,-6,0,2,2,1,-1,-5,-11,-21,-43,-64,-79,-92,-101,-108,-115,-123,-133,-150,-177,-223,-293,-381,-468,-519,-521,-478,-369,-226,-85,16,39,31,-27,-92,-119,-126,-130,-135,-142,-149,-155,-160,-164,-168,-171,-174,-175,-176,-175,-175,-174,-174,-173,-171,-169,-166,-164,-162,-161,-160,-160,-159,-158,-158,-158,-157,-157,-157,-156,-157,-157,-158,-159,-161,-162,-164,-166,-168,-170,-172,-174,-176,-179,-183,-194,-202,-210,-214,-217,-220,-222,-225,-227,-229,-231,-233,-234,-234,-234,-233,-232,-230,-229,-227,-224,-220,-216,-211,-206,-196,-174,-162,-146,-125,-101,-74,-50,-31,-13,9,39,68,99,120,133,142,151,158,162,164,166,168,170,171,173,174,175,175,176,177,178,178,178,177,176,175,173,171,168,165,163,161,159,157,156,155,155,153,152,150,149,147,145,143,141,139,137,136,135,135,134,134,134,133,133,132,131,130,129,129,129,130,131,132,134,135,137,139,140,141,142,143,144,145,145,147,149,151,154,156,157,156,153,148,143,137,128,115,104,95,91,89,87,85,83,82,80,79,77,75,73,71,68,66,63,59,54,48,35,21,8,1,-2,-6,-10,-13,-16,-18,-20,-21,-22,-23,-23,-23,-22,-20,-19,-16,-14,-10,-7,-4,-1,1,4,7,10,15,18,22,24,26,27,27,26,25,21,18,14,8,-2,-27,-73,-144,-241,-349,-437,-452,-436,-325,-170,-19,86,120,117,69,23,7,1,3,5,6,7,8,8,8,8,8,9,10,9,8,5,1,-2,-5,-8,-12,-17,-23,-29,-35,-42,-50,-59,-66,-71,-74,-77,-78,-79,-80,-80,-80,-81,-81,-82,-82,-83,-83,-84,-86,-87,-89,-91,-94,-98,-101,-105,-110,-115,-120,-131,-142,-147,-146,-145,-144,-144,-143,-143,-143,-143,-142,-141,-140,-138,-136,-133,-129,-124,-113,-101,-86,-67,-50,-34,-19,-1,20,42,61,75,87,98,110,122,136,149,162,172,179,185,189,193,195,198,200,201,202,203,204,204,203,200,196,193,189,186,183,180,178,176,174,173,171,169,166,163,160,158,155,153,151,149,147,145,143,142,140,138,136,133,131,128,125,122,119,117,115,114,112,110,108,106,103,101,98,96,93,91,90,88,87,87,86,86,85,84,83,81,80,78,77,76,75,74,73,72,72,71,71,70,68,66,64,62,61,58,56,53,50,47,45,41,36,31,27,22,17,12,6,0,-7,-14,-23,-33,-43,-49,-54,-58,-60,-60,-59,-55,-50,-44,-35,-21,-7,0,4,8,11,13,14,14,13,10,7,4,0,-3,-6,-10,-14,-18,-22,-25,-27,-30,-34,-52,-94,-154,-230,-318,-405,-463,-467,-430,-317,-174,-45,28,39,21,-33,-88,-111,-116,-120,-123,-125,-127,-130,-133,-135,-137,-139,-141,-143,-145,-148,-151,-154,-157,-160,-163,-166,-169,-173,-180,-191,-197,-201,-203,-205,-206,-207,-209,-213,-216,-220,-224,-228,-231,-234,-237,-241,-244,-248,-251,-253,-256,-260,-264,-270,-281,-292,-298,-301,-305,-307,-310,-311,-312,-311,-309,-307,-305,-302,-299,-295,-290,-284,-278,-273,-267,-255,-236,-223,-212,-202,-189,-171,-156,-144,-132,-117,-99,-82,-65,-49,-31,-15,-2,11,22,29,35,41,45,49,51,53,55,57,59,59,60,60,59,58,56,54,51,47,45,43,41,39,37,35,32,30,28,26,24,23,21,20,18,16,14,12,10,8,6,4,2,2,1,2,3,4,5,7,9,11,13,13,10,5,0,-3,-6,-10,-14,-18,-22,-24,-26,-28,-30,-31,-33,-34,-36,-37,-39,-40,-41,-42,-42,-43,-42,-41,-39,-37,-35,-33,-31,-29,-27,-25,-23,-21,-18,-15,-15,-17,-22,-28,-34,-40,-47,-54,-58,-59,-57,-52,-46,-40,-32,-24,-18,-11,-5,0,7,14,21,27,34,43,50,54,58,60,61,62,63,64,66,68,70,72,74,76,78,80,83,88,96,101,99,92,70,24,-43,-131,-227,-312,-342,-332,-250,-114,33,152,211,218,196,151,110,96,91,90,90,89,88,87,86,86,85,81,78,74,72,71,70,69,67,65,63,62,60,59,58,57,56,56,55,54,54,52,51,50,48,46,45,42,37,31,24,15,4,-9,-23,-32,-39,-44,-49,-54,-59,-64,-69,-74,-80,-86,-94,-104,-116,-123,-127,-130,-132,-134,-136,-137,-136,-132,-127,-120,-111,-96,-84,-73,-62,-49,-39,-30,-21,-12,0,12,26,44,66,88,109,129,151,170,184,198,212,226,239,252,264,270,273,276,278,279,279,276,271,266,263,260,257,253,249,246,243,239,236,232,228,225,221,219,216,213,209,206,203,200,197,194,192,189,187,184,182,179,177,175,173,171,170,168,167,165,164,162,161,160,159,158,157,156,154,152,151,149,147,142,131,118,110,104,100,96,95,95,98,101,104,108,112,116,119,117,111,104,97,89,81,72,64,57,51,46,42,38,34,30,26,22,17,13,8,3,0,-7,-20,-42,-58,-71,-84,-96,-106,-111,-113,-115,-117,-118,-119,-120,-120,-120,-120,-117,-113,-108,-102,-96,-90,-83,-76,-72,-71,-71,-71,-71,-70,-69,-68,-68,-70,-74,-78,-82,-85,-89,-94,-100,-105,-114,-143,-185,-243,-319,-407,-492,-547,-552,-513,-409,-272,-137,-58,-30,-43,-82,-115,-124,-129,-133,-137,-142,-147,-152,-157,-160,-162,-164,-165,-166,-166,-168,-170,-172,-174,-176,-178,-178,-179,-179,-180,-181,-181,-182,-184,-186,-188,-190,-193,-196,-200,-205,-212,-218,-223,-228,-233,-237,-241,-245,-248,-251,-254,-256,-259,-262,-265,-267,-268,-269,-271,-273,-275,-277,-279,-280,-281,-281,-282,-282,-281,-280,-279,-277,-275,-273,-270,-266,-263,-259,-252,-235,-218,-203,-191,-179,-167,-146,-119,-94,-68,-47,-30,-13,4,21,42,55,64,72,76,78,77,77,77,76,76,75,74,73,72,71,69,65,61,58,56,54,52,50,49,48,47,47,48,49,51,52,54,56,57,59,60,61,61,61,61,61,62,63,63,63,63,62,62,61,60,59,58,56,55,53,52,50,47,45,42,39,37,33,30,28,26,24,22,21,20,18,17,16,15,14,12,11,9,8,7,7,6,6,5,3,1,0,-3,-10,-19,-28,-38,-47,-54,-60,-65,-70,-74,-76,-76,-76,-74,-72,-68,-63,-57,-43,-17,4,20,36,48,56,64,72,80,90,103,123,141,160,178,193,200,204,206,209,211,213,215,217,219,220,221,222,222,223,223,224,224,228,234,219,173,107,21,-76,-173,-240,-246,-210,-94,52,189,261,285,262,238,222,211,204,198,192,187,183,178,172,164,157,151,147,143,140,136,133,129,126,122,119,115,112,110,107,105,101,97,92,86,81,75,69,64,58,52,47,42,37,33,28,24,20,16,12,7,1,-4,-10,-17,-25,-34,-43,-51,-58,-64,-68,-71,-74,-77,-80,-82,-84,-85,-86,-86,-85,-84,-83,-81,-78,-75,-71,-66,-61,-52,-33,-16,6,32,56,80,104,128,151,175,194,206,218,229,240,250,258,264,268,271,273,275,276,278,279,280,280,280,280,279,277,274,271,267,262,258,253,246,239,232,226,221,218,215,212,209,207,205,201,197,193,189,185,181,176,167,151,142,137,134,132,129,127,124,122,119,115,110,104,99,94,91,89,87,86,83,81,79,77,75,72,70,69,67,66,65,65,64,64,63,63,62,62,61,61,61,61,61,61,60,60,59,59,58,58,57,57,56,56,55,54,53,51,48,44,39,35,30,26,22,17,13,8,2,-6,-15,-23,-32,-38,-43,-47,-50,-52,-52,-50,-47,-44,-40,-36,-33,-30,-26,-23,-19,-17,-15,-14,-13,-14,-16,-19,-22,-25,-28,-31,-35,-39,-42,-47,-52,-58,-64,-69,-73,-79,-89,-125,-195,-289,-391,-484,-523,-518,-453,-326,-186,-68,-28,-14,-30,-79,-119,-130,-137,-144,-151,-156,-158,-162,-164,-165,-165,-166,-167,-169,-171,-173,-175,-177,-179,-182,-185,-189,-194,-207,-236,-261,-278,-293,-307,-321,-337,-347,-353,-358,-361,-365,-368,-372,-376,-380,-385,-391,-397,-404,-411,-418,-425,-432,-439,-447,-454,-458,-460,-461,-464,-466,-469,-469,-462,-454,-448,-444,-440,-437,-433,-429,-424,-421,-416,-411,-404,-387,-358,-330,-307,-287,-268,-249,-229,-208,-189,-171,-154,-136,-118,-98,-74,-53,-39,-29,-20,-14,-9,-5,-2,0,1,3,5,6,8,10,12,14,15,13,10,7,4,1,0,-2,-5,-8,-10,-11,-12,-12,-13,-13,-13,-12,-11,-9,-7,-5,-2,0,2,5,7,9,11,14,17,20,22,25,28,31,33,35,36,37,38,38,38,38,38,39,38,38,38,39,40,41,41,42,43,43,42,41,39,36,33,29,25,21,17,11,2,-6,-11,-16,-20,-25,-30,-32,-30,-24,-16,-2,19,38,58,79,100,110,116,121,124,125,123,119,115,111,108,105,102,98,95,93,91,91,91,92,94,97,101,106,111,116,122,131,141,149,155,160,164,167,170,173,176,178,179,180,180,180,180,179,177,174,171,167,163,143,106,51,-21,-103,-177,-200,-192,-128,-24,88,175,195,202,181,145,115,105,101,98,95,93,91,87,84,81,79,76,73,69,63,58,51,45,38,32,26,21,16,10,4,-1,-5,-9,-13,-15,-19,-22,-25,-28,-30,-34,-37,-41,-46,-54,-62,-69,-75,-81,-85,-89,-93,-96,-100,-104,-107,-110,-113,-115,-117,-119,-121,-124,-126,-127,-129,-130,-130,-130,-129,-128,-127,-126,-124,-122,-120,-117,-114,-111,-107,-101,-85,-69,-53,-37,-22,-6,10,27,41,51,60,70,79,85,91,96,101,105,111,116,121,125,128,130,132,135,137,139,141,143,145,147,148,150,151,152,152,153,153,153,153,152,152,151,150,148,147,145,143,141,138,136,134,132,130,128,126,124,122,120,117,115,113,111,110,109,108,107,107,107,107,108,108,109,109,110,111,113,115,117,119,121,123,125,127,129,130,131,132,134,135,137,139,142,145,147,150,152,154,155,156,157,157,158,159,160,162,164,166,168,170,171,172,171,170,167,164,160,155,150,145,140,133,120,112,107,105,103,100,98,97,95,94,93,93,93,95,97,100,103,107,111,114,117,120,122,124,126,128,132,136,140,144,147,150,151,151,150,149,148,146,143,140,136,133,129,111,65,-2,-83,-179,-270,-322,-339,-318,-252,-156,-66,-27,-13,-16,-38,-50,-57,-63,-67,-71,-75,-79,-81,-85,-87,-90,-91,-93,-94,-95,-97,-98,-99,-101,-102,-104,-107,-109,-112,-115,-118,-121,-124,-127,-130,-133,-136,-139,-142,-146,-149,-153,-156,-159,-162,-165,-167,-169,-172,-175,-178,-182,-188,-195,-201,-207,-212,-216,-219,-222,-225,-227,-230,-233,-235,-238,-240,-242,-243,-242,-242,-241,-240,-239,-238,-236,-234,-231,-228,-225,-222,-211,-188,-169,-148,-124,-104,-85,-66,-48,-27,-9,4,19,35,50,64,76,86,95,103,107,109,111,112,114,115,117,118,120,122,123,125,126,127,128,129,129,130,131,132,134,135,137,139,141,142,143,144,145,145,145,145,144,144,143,142,141,139,138,137,135,133,131,128,126,124,122,119,116,113,111,108,106,104,101,98,95,92,89,85,82,78,75,73,70,67,63,61,58,56,54,52,50,47,44,42,40,38,35,33,31,30,29,28,26,25,23,21,19,17,15,12,10,8,7,5,2,0,-5,-12,-28,-43,-57,-68,-78,-85,-90,-93,-96,-98,-99,-100,-101,-100,-99,-97,-94,-91,-87,-84,-81,-78,-75,-73,-72,-70,-68,-67,-65,-63,-60,-58,-56,-55,-54,-54,-53,-52,-50,-47,-43,-31,-30,-37,-57,-103,-172,-261,-358,-435,-455,-442,-352,-223,-92,7,41,51,37,26,19,14,10,5,0,-4,-8,-13,-18,-22,-24,-24,-25,-26,-27,-28,-28,-28,-27,-27,-27,-27,-28,-29,-30,-31,-33,-36,-38,-40,-42,-44,-46,-48,-51,-53,-56,-59,-63,-66,-68,-71,-73,-76,-79,-82,-86,-90,-94,-98,-102,-106,-111,-116,-122,-129,-136,-143,-149,-156,-163,-166,-167,-167,-168,-168,-169,-170,-170,-168,-162,-155,-148,-138,-128,-118,-103,-83,-66,-47,-28,-10,6,22,37,55,70,81,94,101,106,109,112,113,113,112,110,108,106,105,104,102,101,99,97,95,93,91,88,86,84,82,81,80,79,77,75,74,72,71,69,68,67,66,65,64,63,61,60,59,58,56,55,53,51,49,47,45,43,40,37,33,30,27,24,21,19,17,15,13,11,10,9,8,8,7,7,7,7,7,7,6,6,6,5,4,4,3,3,2,1,0,0,0,0,0,0,-1,-1,-2,-3,-4,-5,-7,-9,-11,-13,-14,-16,-18,-20,-22,-25,-28,-31,-35,-41,-49,-56,-62,-68,-74,-82,-90,-95,-100,-104,-109,-112,-111,-106,-99,-92,-85,-77,-70,-64,-58,-52,-46,-40,-33,-27,-24,-21,-19,-16,-14,-11,-9,-8,-7,-7,-7,-7,-7,-8,-10,-11,-13,-15,-18,-31,-77,-157,-264,-383,-487,-527,-519,-433,-286,-129,-11,39,44,17,-14,-26,-29,-30,-31,-32,-32,-33,-34,-36,-39,-41,-44,-46,-48,-51,-54,-57,-60,-62,-66,-69,-73,-76,-79,-82,-84,-87,-89,-91,-94,-96,-98,-100,-103,-105,-107,-109,-111,-113,-115,-118,-121,-124,-127,-130,-133,-136,-141,-146,-155,-165,-175,-182,-188,-193,-198,-200,-203,-204,-206,-207,-208,-210,-211,-212,-213,-213,-212,-210,-206,-202,-195,-183,-162,-148,-137,-124,-107,-87,-66,-45,-26,-13,-3,8,26,41,53,65,75,84,92,99,111,129,143,150,155,158,161,163,164,165,166,167,169,170,171,172,172,172,171,170,170,168,166,163,161,158,156,153,150,144,137,134,132,130,129,128,126,125,124,123,123,122,122,122,122,123,124,125,126,126,127,127,127,127,127,127,127,128,129,130,129,126,123,121,121,120,119,117,116,115,113,112,111,109,108,107,107,107,106,106,105,105,104,103,101,100,98,96,94,92,91,90,89,88,87,87,85,84,83,81,79,76,73,70,66,62,57,49,35,24,14,4,-5,-10,-13,-16,-19,-21,-22,-21,-20,-18,-15,-12,-8,-2,6,13,19,21,23,25,27,28,30,31,33,34,36,36,36,36,35,35,34,32,30,28,25,22,18,-5,-69,-160,-275,-395,-491,-525,-481,-366,-208,-61,41,77,51,15,-14,-22,-27,-31,-33,-36,-39,-41,-44,-46,-48,-50,-51,-51,-52,-53,-54,-55,-55,-56,-57,-58,-60,-61,-62,-63,-63,-65,-66,-68,-70,-73,-76,-83,-98,-108,-115,-121,-128,-137,-146,-153,-160,-166,-171,-177,-184,-191,-198,-204,-211,-218,-225,-232,-239,-244,-247,-249,-250,-251,-252,-253,-254,-254,-255,-255,-254,-253,-252,-250,-247,-244,-239,-231,-212,-194,-182,-172,-159,-140,-120,-100,-78,-60,-46,-30,-15,2,18,30,40,50,60,71,82,91,99,107,111,113,115,117,118,119,120,121,122,123,124,125,126,127,127,127,127,126,125,123,121,119,117,115,113,111,110,109,108,108,107,105,104,102,101,99,98,97,96,96,96,96,96,97,97,97,96,96,96,95,94,93,92,92,91,91,90,89,88,87,86,84,82,79,76,73,71,68,65,62,60,57,55,52,49,45,40,36,33,30,26,23,19,15,11,7,3,0,-4,-8,-12,-16,-20,-24,-29,-35,-40,-46,-54,-60,-64,-67,-70,-72,-73,-75,-76,-76,-75,-73,-69,-64,-60,-54,-48,-42,-38,-35,-33,-31,-31,-30,-30,-29,-28,-27,-26,-25,-24,-24,-24,-23,-23,-23,-23,-22,-20,-15,-23,-44,-78,-133,-200,-281,-357,-398,-397,-346,-228,-92,30,105,115,88,40,-17,-54,-67,-68,-61,-55,-48,-49,-61,-76,-90,-93,-94,-95,-95,-96,-97,-99,-100,-102,-103,-105,-106,-107,-107,-108,-108,-109,-110,-111,-113,-116,-118,-121,-123,-126,-129,-131,-133,-135,-137,-139,-142,-145,-148,-151,-154,-157,-160,-162,-165,-167,-168,-169,-170,-171,-172,-174,-175,-176,-176,-176,-176,-176,-175,-173,-171,-168,-164,-160,-153,-140,-130,-121,-111,-97,-84,-71,-58,-45,-33,-21,-4,15,30,43,54,68,90,108,120,130,140,146,149,152,155,157,160,162,163,164,164,164,164,165,165,165,164,164,164,165,165,165,160,154,148,144,141,138,134,130,127,124,121,119,117,115,113,112,112,112,111,111,111,110,110,108,107,106,104,103,102,101,100,99,99,98,98,97,96,94,92,90,87,84,81,78,75,73,70,67,64,60,56,49,42,35,31,26,22,19,16,14,12,10,8,8,7,8,8,9,9,9,9,9,9,10,10,10,11,13,14,14,9,2,-6,-18,-33,-44,-53,-61,-67,-72,-76,-80,-83,-85,-84,-81,-75,-69,-63,-55,-48,-43,-39,-37,-35,-34,-33,-32,-32,-31,-31,-30,-30,-30,-30,-31,-32,-33,-35,-37,-39,-43,-47,-51,-60,-81,-117,-168,-238,-325,-408,-457,-458,-415,-304,-180,-74,-16,3,-12,-40,-61,-66,-67,-69,-70,-72,-72,-73,-74,-74,-74,-74,-73,-73,-73,-74,-75,-77,-79,-82,-83,-85,-86,-87,-88,-89,-90,-91,-92,-93,-94,-96,-97,-98,-100,-101,-102,-103,-103,-104,-104,-104,-105,-105,-106,-106,-106,-106,-107,-107,-106,-106,-105,-104,-102,-100,-98,-96,-94,-93,-90,-88,-85,-79,-72,-65,-60,-56,-52,-48,-43,-37,-31,-25,-19,-11,0,10,22,33,46,63,85,109,130,151,170,187,208,224,232,238,242,245,248,250,252,254,256,258,259,260,261,260,258,255,251,247,242,236,228,219,210,201,195,190,185,181,177,174,172,170,169,168,166,165,164,162,161,160,158,156,154,152,150,147,145,142,139,136,133,129,125,121,117,112,107,102,97,92,86,80,75,71,67,64,61,57,52,48,44,38,34,31,29,27,26,24,23,21,20,18,17,15,13,12,11,10,9,7,6,4,1,-1,-4,-7,-10,-13,-17,-20,-23,-26,-29,-33,-39,-50,-61,-72,-77,-81,-85,-88,-91,-93,-95,-95,-95,-95,-95,-94,-92,-89,-86,-82,-78,-73,-68,-58,-48,-39,-32,-27,-23,-19,-16,-13,-10,-8,-6,-5,-4,-2,-1,0,3,8,11,8,0,-25,-78,-155,-253,-357,-439,-462,-450,-360,-220,-82,16,47,58,40,12,-12,-19,-21,-23,-24,-25,-26,-27,-29,-30,-31,-32,-33,-35,-36,-37,-38,-38,-38,-38,-38,-39,-40,-41,-41,-42,-43,-44,-46,-47,-48,-49,-50,-52,-53,-55,-57,-60,-63,-66,-72,-81,-91,-99,-106,-115,-125,-135,-145,-151,-156,-160,-164,-167,-169,-172,-175,-177,-180,-182,-184,-187,-190,-192,-193,-192,-189,-185,-179,-173,-166,-153,-143,-135,-126,-115,-104,-93,-82,-71,-57,-39,-19,-2,12,29,50,71,90,104,114,120,124,127,129,131,134,136,137,139,140,141,143,145,148,150,152,152,151,150,148,146,145,143,141,140,139,137,136,136,136,136,136,136,136,135,134,133,132,130,129,128,127,127,126,126,125,125,124,123,122,120,119,117,115,114,113,112,111,110,108,106,103,101,98,94,85,77,68,65,63,61,60,59,58,58,58,58,58,58,58,58,58,58,57,56,55,54,54,54,54,53,52,51,50,49,48,46,44,42,39,35,26,16,6,-5,-20,-33,-42,-50,-56,-59,-62,-64,-66,-67,-69,-70,-71,-71,-71,-70,-68,-65,-61,-56,-52,-47,-38,-32,-31,-30,-29,-28,-27,-27,-26,-24,-23,-21,-20,-19,-20,-21,-22,-23,-25,-28,-32,-36,-40,-46,-79,-144,-230,-332,-421,-462,-457,-387,-260,-126,-19,3,11,-13,-30,-39,-46,-52,-56,-58,-60,-61,-63,-64,-65,-65,-64,-64,-65,-66,-67,-68,-70,-72,-75,-78,-81,-84,-86,-88,-91,-93,-95,-98,-100,-102,-105,-107,-110,-114,-119,-129,-138,-146,-151,-154,-157,-159,-160,-163,-165,-167,-169,-171,-174,-176,-179,-182,-189,-196,-203,-206,-208,-211,-214,-216,-218,-219,-220,-220,-220,-220,-219,-217,-214,-211,-208,-205,-201,-195,-180,-169,-158,-147,-137,-125,-108,-92,-74,-56,-38,-22,-5,9,25,37,44,49,55,60,63,65,68,70,71,72,72,72,70,68,65,61,58,55,52,50,48,46,44,42,40,39,37,35,33,32,30,29,28,27,26,25,24,23,22,20,18,15,13,11,8,6,4,2,1,0,0,-1,-2,-3,-5,-6,-8,-10,-12,-15,-16,-17,-18,-19,-20,-21,-23,-26,-29,-33,-38,-44,-50,-56,-61,-64,-67,-69,-71,-72,-73,-74,-75,-77,-78,-79,-79,-80,-80,-81,-81,-81,-81,-81,-82,-83,-84,-86,-88,-91,-97,-103,-111,-118,-124,-129,-133,-137,-140,-140,-138,-134,-130,-125,-118,-108,-99,-91,-82,-75,-68,-63,-59,-54,-49,-46,-43,-40,-38,-37,-35,-33,-32,-31,-31,-30,-30,-31,-33,-37,-40,-44,-50,-72,-123,-190,-272,-353,-393,-388,-321,-193,-37,98,146,147,101,32,-32,-43,-46,-48,-50,-51,-51,-52,-52,-51,-51,-50,-48,-47,-46,-45,-44,-44,-43,-42,-41,-39,-38,-36,-35,-34,-34,-35,-36,-38,-40,-43,-45,-47,-50,-52,-54,-57,-61,-66,-70,-74,-78,-81,-84,-86,-88,-90,-92,-93,-95,-96,-98,-99,-100,-101,-102,-102,-101,-99,-98,-96,-94,-92,-89,-86,-84,-81,-77,-71,-64,-58,-53,-48,-38,-21,-3,14,31,47,62,78,95,110,124,140,153,163,173,186,205,216,222,226,229,233,237,241,244,247,249,252,254,256,257,257,256,254,252,249,246,243,240,238,235,233,231,228,226,224,222,220,218,217,215,213,211,208,204,197,192,190,189,188,188,187,187,186,186,185,183,182,180,179,176,174,171,166,161,155,148,143,138,133,128,124,120,115,110,105,99,95,90,87,85,83,82,80,79,78,78,78,78,78,78,78,77,77,76,76,75,75,74,74,73,73,72,70,69,66,60,54,47,40,33,28,23,17,12,7,3,0,-2,-6,-9,-11,-11,-10,-8,-5,0,3,8,17,25,31,36,41,45,49,52,56,60,64,67,70,73,76,78,79,79,79,78,75,72,68,53,24,-23,-95,-185,-279,-354,-375,-366,-293,-179,-60,40,86,102,93,67,41,35,31,28,26,23,20,17,14,12,9,7,5,3,0,-1,-5,-8,-11,-15,-20,-25,-30,-36,-41,-47,-53,-59,-66,-73,-79,-86,-92,-97,-101,-105,-108,-110,-112,-114,-116,-119,-120,-122,-124,-126,-129,-135,-144,-154,-162,-169,-177,-185,-191,-197,-201,-204,-205,-207,-208,-208,-209,-210,-211,-212,-211,-209,-205,-199,-193,-185,-172,-164,-158,-149,-133,-113,-94,-78,-66,-55,-40,-20,0,16,32,46,57,65,78,86,91,94,98,101,104,106,108,111,114,118,121,122,121,117,112,107,103,98,92,87,83,80,77,74,70,67,64,61,58,54,50,46,45,44,44,44,44,44,43,43,43,42,42,43,43,44,44,45,45,46,46,45,45,44,43,42,41,40,39,37,36,35,33,32,31,30,29,28,27,26,25,24,23,22,22,22,22,21,21,20,19,18,17,16,15,15,15,15,14,14,13,13,11,10,9,8,6,5,2,-6,-14,-21,-26,-33,-42,-47,-51,-54,-57,-59,-60,-60,-59,-58,-56,-53,-49,-45,-38,-30,-23,-15,-6,1,5,6,7,8,8,9,10,11,13,15,16,17,18,19,20,22,25,30,33,30,20,-9,-69,-148,-245,-350,-435,-471,-433,-330,-183,-40,68,99,99,68,17,-2,-8,6,17,23,28,31,33,33,32,30,27,23,19,15,12,10,8,6,5,3,0,-1,-3,-4,-5,-6,-5,-5,-5,-5,-6,-7,-9,-11,-14,-18,-22,-27,-31,-35,-39,-43,-46,-51,-54,-59,-65,-73,-80,-87,-92,-97,-102,-107,-111,-116,-120,-123,-125,-127,-129,-130,-129,-127,-124,-121,-117,-112,-105,-99,-93,-87,-79,-69,-58,-43,-25,-11,-1,8,21,36,48,58,67,77,86,96,110,128,140,147,152,155,157,159,162,163,159,149,133,114,100,84,66,47,35,29,25,22,18,15,12,10,7,4,2,0,-3,-6,-9,-13,-17,-22,-27,-32,-38,-43,-47,-52,-57,-61,-64,-66,-68,-71,-73,-76,-78,-77,-74,-70,-67,-65,-64,-63,-62,-60,-59,-59,-58,-56,-55,-54,-54,-54,-54,-54,-54,-54,-53,-52,-52,-51,-49,-47,-46,-45,-44,-43,-42,-42,-42,-42,-41,-41,-40,-40,-39,-38,-37,-37,-36,-36,-36,-37,-39,-41,-42,-44,-47,-48,-50,-51,-53,-54,-56,-60,-65,-68,-69,-67,-63,-58,-54,-49,-44,-39,-35,-30,-26,-21,-15,-9,-2,3,9,15,20,24,28,31,35,40,44,51,62,79,90,97,103,109,114,119,123,123,120,113,94,58,-4,-84,-174,-252,-287,-262,-176,-42,92,200,257,263,234,200,174,164,165,176,184,192,198,197,190,182,176,173,169,166,163,160,158,156,154,151,148,140,125,112,96,79,62
