-1028,-1225,-1418,-1599,-1747,-1808,-1797,-1728,-1687,-1643,-1596,-1577,-1564,-1531,-1489,-1444,-1419,-1397,-1373,-1344,-1318,-1299,-1285,-1270,-1249,-1222,-1194,-1168,-1128,-1078,-1028,-984,-941,-892,-840,-791,-761,-731,-701,-684,-676,-670,-665,-660,-656,-652,-647,-638,-624,-604,-587,-573,-560,-547,-538,-530,-523,-517,-513,-510,-506,-501,-496,-490,-479,-465,-441,-407,-350,-281,-197,-110,-35,7,23,23,7,-35,-87,-147,-212,-272,-308,-320,-325,-319,-306,-294,-280,-266,-253,-241,-230,-219,-208,-197,-183,-165,-149,-137,-129,-120,-110,-101,-96,-92,-88,-85,-82,-79,-75,-72,-68,-65,-61,-56,-47,-29,-11,2,15,27,39,54,71,88,103,116,128,141,154,166,178,190,200,208,217,226,236,247,259,272,285,299,312,326,338,350,363,374,384,389,392,395,398,400,401,403,404,404,405,404,402,399,396,393,390,386,383,381,378,375,371,368,365,362,359,358,356,356,357,358,361,364,367,371,375,379,384,391,402,414,424,432,439,445,451,456,461,463,463,461,457,452,445,432,405,377,346,314,283,255,225,205,194,184,174,165,159,155,151,147,144,141,138,135,133,131,129,128,128,128,128,129,129,129,129,128,128,127,126,125,124,123,123,123,122,122,122,122,121,120,120,119,120,120,121,122,123,124,126,128,129,131,132,133,135,137,140,142,144,146,148,149,148,147,145,142,139,136,133,129,125,122,119,116,113,109,105,102,99,97,96,96,97,99,101,104,107,109,112,114,118,122,127,132,135,138,139,140,140,139,137,134,131,127,123,118,106,81,56,25,7,-2,-10,-16,-21,-23,-24,-22,-19,-14,-9,-1,12,46,110,184,259,326,346,355,350,305,249,184,113,39,-23,-59,-71,-76,-70,-57,-47,-38,-30,-21,-13,-4,5,17,28,39,49,57,64,70,76,82,87,92,96,98,99,101,102,103,104,106,108,110,111,112,113,114,114,115,116,117,118,120,121,123,125,127,129,131,132,133,134,135,137,140,144,149,153,157,161,163,166,169,171,174,177,180,183,185,187,188,186,184,179,173,167,162,155,148,140,133,127,120,114,108,101,94,88,81,73,61,42,28,12,-13,-34,-45,-56,-66,-77,-91,-108,-124,-132,-137,-141,-145,-148,-150,-151,-152,-150,-147,-142,-136,-130,-124,-118,-113,-109,-105,-102,-100,-98,-96,-94,-92,-90,-89,-87,-87,-86,-87,-87,-88,-89,-90,-91,-91,-90,-90,-89,-88,-87,-85,-83,-82,-80,-78,-75,-71,-66,-61,-56,-51,-46,-41,-36,-33,-30,-29,-29,-28,-27,-27,-26,-26,-26,-25,-25,-24,-25,-25,-25,-25,-24,-24,-23,-22,-20,-19,-17,-16,-15,-14,-13,-12,-11,-10,-9,-8,-7,-6,-6,-5,-5,-5,-5,-5,-5,-5,-4,-4,-4,-4,-3,-3,-4,-4,-3,-2,-2,-1,0,0,0,1,1,1,1,1,2,3,6,9,11,14,16,18,19,19,19,18,18,18,17,17,18,18,18,17,17,16,15,14,11,7,2,-2,-8,-14,-18,-24,-30,-35,-38,-40,-39,-37,-31,-24,-13,26,86,165,259,360,451,499,498,441,314,152,-2,-113,-152,-164,-144,-119,-97,-78,-71,-67,-63,-60,-58,-55,-53,-52,-50,-49,-48,-46,-44,-42,-40,-38,-36,-33,-31,-29,-27,-25,-24,-23,-22,-21,-20,-19,-18,-17,-16,-15,-15,-14,-14,-14,-15,-15,-15,-13,-11,-9,-6,-4,-2,0,3,6,9,12,16,22,29,37,45,51,56,61,65,68,71,74,76,79,82,85,87,88,88,86,84,80,75,68,60,48,27,9,-5,-18,-31,-44,-48,-51,-53,-56,-58,-61,-64,-66,-68,-70,-72,-73,-74,-74,-75,-75,-75,-75,-75,-75,-74,-74,-73,-72,-71,-70,-69,-68,-68,-67,-66,-64,-63,-62,-61,-60,-59,-57,-56,-55,-55,-54,-54,-53,-52,-51,-50,-49,-47,-44,-41,-37,-34,-31,-28,-25,-23,-20,-19,-17,-16,-14,-13,-11,-9,-7,-5,-3,0,1,3,5,6,7,7,7,5,3,1,0,-2,-4,-6,-8,-9,-10,-11,-11,-12,-13,-14,-16,-17,-19,-20,-22,-23,-24,-25,-26,-26,-26,-26,-26,-26,-26,-26,-26,-26,-27,-28,-30,-31,-32,-34,-35,-36,-36,-37,-37,-36,-36,-35,-35,-35,-35,-35,-35,-35,-35,-35,-35,-34,-34,-34,-33,-33,-32,-31,-31,-31,-30,-29,-28,-27,-26,-25,-24,-23,-22,-21,-21,-20,-20,-19,-18,-15,-13,-11,-11,-14,-18,-24,-29,-34,-38,-43,-47,-51,-54,-55,-56,-55,-53,-49,-44,-37,-29,4,62,141,239,347,450,516,538,509,419,266,98,-43,-118,-145,-145,-130,-113,-95,-77,-68,-62,-57,-53,-49,-46,-42,-39,-36,-35,-34,-32,-32,-31,-31,-31,-31,-31,-31,-31,-30,-29,-28,-26,-25,-24,-23,-22,-22,-21,-20,-19,-17,-14,-11,-8,-4,0,8,17,27,36,46,57,72,85,97,105,111,115,119,124,130,136,143,150,155,160,165,170,174,178,181,183,185,185,185,184,181,178,174,169,164,157,147,136,125,115,106,98,90,83,77,71,65,59,52,45,38,34,32,30,28,26,25,23,22,22,21,21,21,21,21,21,21,22,23,24,26,28,30,32,35,38,41,44,46,48,50,52,53,55,55,56,57,58,58,59,60,61,61,62,62,62,62,61,60,59,59,58,57,57,56,55,55,54,54,54,53,53,53,53,53,53,53,52,52,51,50,49,48,46,45,44,41,33,24,12,4,-1,-6,-10,-15,-18,-21,-24,-26,-30,-34,-38,-41,-44,-45,-46,-47,-47,-48,-48,-49,-49,-50,-50,-51,-51,-52,-53,-53,-55,-56,-58,-60,-62,-65,-67,-69,-71,-73,-75,-77,-79,-82,-84,-86,-87,-89,-91,-92,-92,-91,-90,-90,-89,-88,-86,-84,-82,-79,-77,-74,-72,-67,-57,-48,-41,-36,-31,-27,-25,-26,-30,-37,-44,-53,-62,-72,-80,-87,-93,-100,-108,-114,-119,-123,-127,-130,-133,-134,-135,-135,-133,-131,-127,-122,-116,-89,-43,24,115,226,341,439,479,471,392,242,66,-87,-189,-216,-211,-182,-160,-150,-145,-141,-134,-125,-116,-106,-96,-88,-84,-82,-82,-82,-82,-81,-81,-81,-81,-81,-82,-82,-83,-83,-84,-84,-85,-85,-85,-84,-84,-83,-82,-81,-80,-79,-77,-76,-74,-73,-71,-69,-66,-64,-60,-55,-50,-45,-41,-35,-30,-25,-19,-12,-6,-1,4,10,17,25,31,38,46,57,69,77,82,86,89,91,91,89,86,82,77,70,57,47,33,15,0,-10,-21,-29,-35,-40,-45,-50,-54,-60,-66,-71,-75,-78,-79,-80,-81,-82,-82,-83,-83,-84,-84,-84,-83,-83,-84,-84,-84,-84,-84,-84,-83,-82,-82,-80,-79,-77,-76,-74,-73,-72,-70,-68,-64,-59,-56,-54,-52,-49,-47,-45,-42,-38,-33,-28,-24,-19,-15,-11,-7,-4,0,1,3,5,6,7,8,8,8,9,10,11,12,13,14,15,17,18,19,19,19,19,19,19,20,20,20,21,22,23,24,26,27,28,29,29,30,29,29,29,28,28,27,27,28,29,30,31,32,32,31,30,30,29,29,27,26,25,25,24,24,24,24,24,24,24,24,23,22,21,20,20,19,19,19,19,19,20,21,22,22,23,24,25,26,28,30,32,34,37,44,51,58,64,68,71,74,76,78,80,80,80,79,78,76,73,70,66,62,55,48,42,36,32,29,27,24,23,22,21,21,22,23,24,26,28,38,73,128,204,299,406,509,587,614,571,461,305,137,1,-57,-76,-58,-42,-32,-23,-17,-13,-10,-3,4,10,13,15,16,17,17,17,17,18,19,20,21,21,21,21,21,21,21,21,21,20,20,20,20,21,21,22,22,22,23,23,24,24,24,24,25,26,28,29,30,32,34,36,39,45,52,57,63,69,76,85,94,102,109,114,119,122,125,127,130,132,134,135,135,134,131,126,120,109,91,80,71,62,50,36,24,16,7,0,-7,-18,-28,-37,-44,-50,-56,-62,-69,-76,-80,-84,-87,-89,-91,-93,-94,-95,-95,-95,-96,-96,-96,-96,-96,-95,-95,-95,-95,-95,-95,-95,-95,-95,-95,-95,-95,-94,-94,-93,-91,-90,-88,-87,-86,-84,-82,-80,-76,-67,-64,-63,-63,-62,-61,-61,-60,-60,-60,-60,-60,-59,-58,-58,-57,-57,-55,-54,-53,-52,-50,-49,-47,-45,-42,-40,-37,-35,-33,-31,-29,-27,-25,-24,-23,-22,-20,-19,-18,-18,-17,-17,-16,-15,-15,-14,-14,-14,-14,-14,-13,-13,-13,-13,-13,-13,-13,-14,-14,-14,-14,-14,-14,-14,-14,-14,-14,-15,-17,-20,-22,-24,-26,-28,-30,-31,-32,-32,-30,-27,-24,-21,-18,-14,-9,-3,0,4,7,9,11,13,15,17,20,22,25,27,31,35,40,45,48,51,54,57,60,61,59,54,48,44,39,35,31,28,26,24,21,18,13,7,0,-7,-14,-17,-14,-5,17,55,107,176,260,357,457,543,576,568,488,340,169,17,-80,-101,-97,-57,-18,-4,-1,0,0,2,3,3,3,2,0,-1,-4,-8,-12,-20,-28,-35,-42,-49,-55,-59,-65,-72,-82,-93,-101,-101,-100,-100,-101,-101,-101,-100,-100,-99,-99,-98,-98,-96,-94,-93,-91,-90,-88,-86,-85,-83,-81,-79,-77,-75,-72,-66,-57,-47,-37,-27,-19,-13,-7,-1,4,9,14,19,24,31,36,43,47,48,44,38,32,22,14,3,-12,-26,-37,-47,-56,-63,-70,-78,-82,-85,-87,-89,-91,-92,-93,-94,-94,-94,-94,-94,-94,-93,-93,-92,-91,-90,-89,-88,-88,-86,-85,-84,-82,-81,-79,-77,-75,-72,-69,-67,-63,-56,-50,-45,-43,-42,-41,-40,-40,-39,-38,-38,-38,-37,-36,-35,-34,-33,-32,-31,-31,-30,-28,-27,-25,-23,-22,-20,-18,-15,-13,-11,-10,-9,-9,-9,-10,-10,-10,-11,-11,-12,-12,-12,-12,-12,-12,-13,-13,-14,-15,-15,-16,-16,-16,-16,-16,-15,-14,-14,-14,-14,-15,-16,-16,-17,-17,-18,-18,-19,-19,-18,-18,-17,-17,-16,-16,-15,-14,-13,-12,-11,-10,-9,-8,-6,-5,-2,0,3,6,8,10,11,13,14,15,15,15,16,16,17,18,18,19,20,22,24,26,29,32,35,38,44,50,55,59,63,66,68,71,74,76,78,78,78,77,75,72,68,65,61,57,53,49,46,43,40,37,33,28,20,17,15,14,12,21,48,86,140,211,297,396,498,581,621,596,502,359,203,73,-6,-15,-18,-20,-20,-19,-17,-13,-6,3,8,10,11,13,14,15,16,18,20,22,23,26,28,32,39,46,53,59,65,70,75,80,87,95,104,108,111,113,115,117,119,122,125,128,131,136,142,152,158,162,164,166,167,168,169,170,172,173,175,177,180,182,185,188,191,195,198,201,203,204,206,208,210,212,213,213,209,204,197,188,174,164,155,145,134,119,101,87,75,64,53,43,33,27,22,18,13,6,0,-4,-8,-13,-17,-20,-23,-26,-28,-30,-32,-34,-35,-36,-37,-38,-39,-40,-40,-40,-40,-39,-39,-38,-37,-35,-34,-32,-31,-30,-29,-29,-29,-29,-29,-29,-29,-29,-29,-29,-30,-30,-30,-30,-31,-31,-31,-32,-33,-33,-34,-34,-34,-34,-35,-35,-35,-35,-34,-34,-34,-34,-33,-33,-33,-33,-33,-33,-34,-34,-34,-34,-34,-34,-33,-32,-31,-30,-29,-28,-28,-28,-28,-28,-29,-30,-30,-31,-31,-31,-32,-32,-31,-31,-31,-31,-31,-31,-32,-32,-32,-32,-32,-32,-32,-32,-33,-33,-33,-33,-33,-33,-34,-34,-34,-33,-33,-33,-33,-32,-31,-29,-28,-26,-24,-23,-20,-17,-14,-11,-7,-4,0,3,7,13,21,28,32,37,41,48,56,64,73,79,84,88,91,93,95,96,94,91,86,81,78,74,71,68,65,63,62,62,62,63,65,68,72,78,99,140,199,276,369,474,576,658,683,672,589,447,283,135,34,-2,-4,19,49,65,72,75,78,80,82,84,86,88,90,92,94,97,101,101,99,93,85,62,35,8,-21,-38,-67,-98,-112,-118,-121,-124,-126,-126,-123,-118,-114,-109,-105,-100,-95,-89,-83,-78,-72,-67,-63,-59,-55,-50,-45,-40,-34,-28,-22,-16,-12,-7,-3,0,5,10,16,22,28,37,49,62,70,75,79,82,84,84,84,82,79,75,71,66,57,49,41,32,21,10,0,-10,-21,-28,-34,-39,-41,-42,-43,-43,-43,-43,-44,-44,-45,-45,-46,-46,-46,-46,-46,-46,-45,-45,-45,-45,-45,-45,-44,-44,-43,-42,-41,-40,-39,-37,-36,-35,-34,-33,-32,-31,-30,-29,-28,-26,-24,-22,-21,-19,-18,-18,-18,-19,-21,-23,-26,-28,-31,-33,-36,-38,-40,-41,-43,-46,-48,-51,-54,-56,-57,-57,-56,-54,-52,-49,-46,-42,-39,-37,-35,-32,-30,-27,-25,-23,-22,-20,-19,-18,-17,-17,-17,-17,-18,-18,-17,-17,-17,-17,-17,-16,-15,-14,-14,-17,-21,-26,-31,-36,-41,-46,-51,-55,-60,-63,-66,-68,-71,-74,-76,-78,-79,-79,-78,-76,-74,-72,-69,-66,-63,-58,-53,-46,-40,-33,-27,-20,-16,-13,-12,-10,-9,-7,-5,-4,-2,-1,0,2,5,7,9,11,14,16,19,21,22,22,20,17,13,9,5,2,0,-4,-7,-10,-13,-16,-19,-20,-22,-23,-25,-27,-30,-34,-38,-37,-33,-26,-5,42,113,207,319,438,545,605,605,545,403,224,51,-72,-119,-123,-98,-71,-63,-59,-53,-48,-42,-32,-20,-17,-16,-16,-15,-15,-16,-16,-15,-15,-14,-14,-14,-14,-15,-16,-17,-18,-18,-18,-18,-17,-17,-16,-15,-14,-13,-12,-12,-11,-11,-10,-9,-8,-6,-4,-2,1,4,7,10,14,18,24,33,41,50,59,69,76,82,89,95,102,110,117,125,133,142,147,151,155,158,160,161,161,159,157,153,148,142,133,117,105,93,81,69,57,45,32,20,8,-1,-9,-15,-20,-25,-29,-31,-32,-33,-33,-34,-34,-35,-35,-36,-37,-38,-39,-40,-41,-42,-42,-43,-43,-44,-44,-45,-45,-46,-48,-50,-52,-54,-55,-55,-53,-50,-47,-45,-43,-41,-39,-37,-35,-34,-33,-31,-30,-29,-27,-26,-25,-24,-23,-22,-20,-18,-17,-16,-15,-13,-11,-9,-8,-7,-7,-7,-8,-9,-10,-12,-14,-16,-18,-20,-23,-25,-28,-31,-35,-39,-43,-47,-50,-54,-59,-67,-79,-89,-99,-108,-109,-110,-111,-111,-112,-113,-113,-113,-113,-111,-109,-106,-103,-99,-96,-93,-90,-88,-86,-84,-82,-80,-79,-77,-75,-73,-71,-70,-68,-66,-65,-63,-61,-59,-58,-57,-55,-54,-53,-52,-51,-50,-49,-48,-46,-45,-43,-41,-39,-37,-35,-33,-31,-29,-26,-23,-20,-16,-11,-3,4,7,10,12,13,13,14,15,15,16,16,16,16,16,16,15,14,12,11,9,7,5,2,0,-1,-4,-10,-14,-14,-8,2,35,85,160,258,373,490,590,635,632,568,436,270,109,-13,-63,-79,-66,-44,-23,-12,-6,-1,3,7,8,9,11,12,13,13,13,13,14,14,14,14,14,14,14,15,15,15,15,16,16,16,17,18,19,20,21,23,25,26,27,28,29,30,32,33,35,39,42,46,50,53,56,59,62,65,69,73,79,86,92,97,103,109,115,122,129,135,139,144,148,150,151,150,148,144,140,136,130,124,118,110,101,88,76,61,44,28,9,-2,-7,-11,-14,-16,-18,-19,-21,-22,-24,-25,-26,-26,-26,-27,-28,-28,-29,-29,-29,-29,-30,-31,-32,-33,-33,-33,-34,-35,-35,-35,-35,-34,-33,-33,-33,-33,-32,-31,-30,-29,-28,-26,-25,-24,-22,-20,-19,-18,-16,-15,-14,-12,-10,-8,-6,-3,-1,1,3,6,8,11,13,16,19,22,26,30,34,37,39,41,43,45,45,46,46,46,47,47,48,49,50,50,50,50,50,49,47,46,44,42,40,38,36,35,34,32,30,29,29,30,31,32,34,34,35,36,38,39,40,41,41,41,42,41,40,39,37,35,34,32,31,30,29,29,28,28,27,27,26,25,24,24,23,23,23,24,24,26,27,29,31,33,35,37,39,41,43,44,46,49,51,53,56,57,58,58,58,57,55,52,48,45,41,37,32,25,19,12,6,2,-1,-4,-7,-10,-11,-12,-11,-10,-9,-6,-2,2,22,67,134,224,333,450,556,617,618,564,431,262,99,-20,-64,-79,-58,-43,-35,-29,-24,-20,-16,-13,-10,-7,-4,-2,0,1,1,2,3,4,5,6,7,8,8,8,9,9,9,10,10,11,12,13,13,14,15,16,17,17,18,19,20,21,22,23,25,28,30,33,36,38,40,42,44,45,47,49,51,54,59,70,83,89,93,97,100,103,105,107,107,108,108,108,107,107,106,104,103,101,99,94,81,64,49,34,20,7,-5,-17,-31,-41,-47,-52,-57,-59,-61,-62,-64,-64,-64,-64,-63,-62,-60,-59,-59,-58,-58,-57,-56,-55,-54,-52,-51,-50,-49,-48,-47,-46,-45,-45,-44,-42,-39,-37,-35,-34,-34,-34,-35,-36,-36,-38,-39,-41,-42,-42,-42,-42,-42,-41,-40,-37,-35,-32,-30,-28,-27,-24,-21,-18,-16,-16,-18,-19,-21,-22,-23,-24,-26,-27,-28,-29,-30,-31,-32,-33,-33,-33,-33,-33,-33,-32,-32,-31,-30,-29,-28,-27,-27,-26,-26,-26,-26,-26,-26,-27,-27,-26,-26,-26,-25,-25,-24,-23,-23,-22,-21,-21,-20,-19,-19,-18,-17,-14,-12,-9,-8,-7,-8,-9,-11,-13,-16,-19,-22,-24,-22,-19,-15,-13,-10,-8,-5,-3,-1,0,1,3,5,6,8,9,11,13,15,17,19,21,22,24,26,29,34,43,46,48,51,52,52,49,44,38,29,20,13,8,2,-3,-9,-15,-20,-24,-26,-27,-25,-22,-18,-2,32,84,154,242,344,449,535,573,542,437,280,109,-32,-113,-123,-117,-79,-53,-44,-37,-31,-24,-15,-6,-3,-1,0,1,2,2,3,3,4,4,4,4,4,4,4,5,5,6,6,7,8,8,9,9,10,10,11,12,13,15,16,18,20,22,25,27,29,30,32,33,34,35,36,37,39,41,43,46,50,54,59,65,73,80,85,90,95,100,107,112,116,120,122,123,122,120,117,112,104,90,77,65,55,48,39,29,19,10,1,-6,-14,-22,-30,-39,-48,-55,-58,-60,-61,-61,-62,-62,-62,-63,-64,-64,-65,-65,-65,-65,-65,-65,-65,-66,-67,-68,-69,-70,-72,-73,-75,-75,-76,-76,-75,-75,-74,-74,-74,-73,-73,-74,-74,-74,-74,-74,-74,-74,-73,-73,-72,-70,-69,-67,-66,-64,-63,-63,-62,-62,-62,-61,-61,-60,-59,-59,-58,-57,-55,-54,-53,-53,-53,-53,-53,-53,-53,-53,-53,-53,-52,-51,-50,-49,-48,-48,-48,-49,-49,-51,-52,-54,-55,-56,-57,-58,-60,-62,-63,-64,-64,-63,-62,-60,-58,-55,-51,-48,-44,-40,-37,-35,-33,-32,-31,-30,-30,-29,-29,-28,-28,-28,-29,-31,-34,-36,-37,-38,-39,-40,-41,-41,-42,-42,-42,-43,-44,-45,-46,-47,-48,-48,-49,-50,-50,-51,-52,-53,-56,-58,-60,-59,-55,-51,-45,-36,-26,-18,-12,-7,-3,-1,1,5,7,4,-1,-6,-12,-19,-27,-33,-39,-44,-49,-53,-57,-62,-65,-66,-66,-67,-68,-60,-32,14,85,178,287,403,509,568,569,511,378,211,51,-68,-126,-135,-122,-88,-57,-39,-33,-29,-29,-32,-35,-37,-39,-40,-42,-42,-41,-39,-36,-32,-29,-26,-22,-19,-15,-12,-11,-10,-9,-9,-9,-8,-7,-7,-6,-4,-3,-3,-2,-2,-2,-1,0,0,1,2,5,8,12,16,20,25,30,36,42,46,50,54,57,60,64,67,70,77,88,99,112,122,128,131,133,134,134,135,136,137,137,133,127,118,104,92,78,63,47,32,17,5,-3,-12,-20,-28,-31,-32,-33,-33,-33,-34,-34,-34,-34,-34,-34,-35,-35,-35,-34,-34,-35,-35,-35,-35,-35,-35,-35,-34,-33,-32,-31,-30,-30,-29,-29,-28,-28,-28,-28,-27,-27,-25,-24,-22,-20,-19,-18,-17,-17,-17,-17,-18,-18,-19,-19,-18,-18,-17,-16,-16,-19,-22,-26,-28,-30,-32,-34,-36,-38,-39,-40,-40,-41,-41,-40,-40,-39,-38,-38,-38,-38,-38,-38,-38,-37,-36,-34,-33,-31,-32,-34,-37,-38,-40,-41,-43,-44,-45,-46,-46,-46,-45,-43,-41,-38,-35,-31,-27,-18,-14,-12,-12,-12,-12,-12,-12,-12,-12,-12,-11,-11,-10,-10,-9,-9,-8,-8,-7,-5,-4,-1,1,8,14,19,25,29,33,39,44,49,53,57,61,64,67,70,74,79,85,90,93,95,97,99,100,101,101,102,102,101,100,99,97,95,92,88,83,73,60,52,46,42,38,36,34,32,28,24,23,25,30,44,79,138,221,326,439,542,605,608,562,441,287,135,19,-32,-48,-41,-34,-31,-28,-25,-21,-15,-5,10,17,21,23,26,27,28,29,31,32,33,34,34,34,34,34,34,34,34,35,36,36,37,38,38,38,39,39,39,40,40,41,41,43,44,46,48,50,54,61,69,76,81,84,87,90,92,95,97,99,101,104,109,115,124,129,133,136,139,141,142,141,138,135,131,126,120,109,101,94,87,80,73,65,56,45,34,23,12,0,-11,-20,-27,-33,-37,-39,-41,-43,-44,-45,-46,-47,-47,-48,-48,-49,-49,-48,-48,-48,-47,-47,-46,-44,-43,-42,-40,-39,-38,-37,-35,-34,-33,-33,-33,-32,-32,-31,-31,-30,-29,-29,-28,-27,-26,-26,-25,-25,-24,-24,-23,-23,-22,-21,-20,-18,-17,-15,-12,-10,-7,-5,-2,3,18,22,24,25,26,27,29,30,31,31,31,31,30,28,25,21,18,14,11,9,6,2,0,-2,-3,-3,-2,-2,-1,-1,0,0,0,2,3,4,5,6,7,7,7,6,4,3,1,0,-2,-3,-5,-6,-8,-9,-10,-12,-14,-17,-19,-21,-24,-26,-28,-30,-33,-36,-38,-42,-46,-50,-53,-55,-57,-58,-59,-60,-61,-62,-64,-65,-65,-64,-63,-60,-57,-54,-51,-47,-44,-41,-38,-34,-31,-28,-25,-22,-18,-14,-10,-7,-6,-7,-11,-15,-20,-25,-30,-35,-40,-44,-48,-52,-56,-62,-65,-66,-61,-52,-25,24,96,190,300,415,511,546,538,460,319,154,6,-94,-121,-129,-111,-94,-83,-75,-71,-67,-64,-61,-57,-53,-50,-49,-51,-53,-56,-59,-62,-65,-64,-59,-53,-50,-48,-46,-44,-43,-41,-39,-38,-38,-37,-36,-34,-33,-33,-32,-31,-30,-29,-28,-27,-27,-26,-25,-24,-23,-22,-20,-19,-16,-14,-11,-7,-4,0,4,12,21,27,34,43,54,64,69,73,76,78,80,81,81,81,80,79,77,74,70,67,61,52,44,37,29,19,9,0,-7,-15,-23,-28,-33,-37,-40,-43,-44,-45,-46,-46,-47,-48,-49,-50,-51,-51,-52,-52,-52,-52,-51,-51,-50,-50,-49,-50,-50,-50,-49,-49,-49,-48,-47,-45,-43,-41,-39,-37,-36,-35,-34,-33,-32,-32,-31,-31,-30,-29,-27,-25,-24,-22,-21,-20,-20,-19,-19,-19,-19,-19,-18,-18,-17,-16,-15,-13,-12,-11,-9,-8,-8,-7,-7,-6,-6,-5,-4,-4,-3,-2,-1,0,0,1,1,1,1,1,1,1,0,1,1,2,2,3,4,4,4,4,5,5,5,6,6,7,7,8,8,9,9,9,8,8,7,7,6,5,5,4,3,1,0,-2,-4,-6,-7,-8,-10,-11,-12,-14,-15,-16,-17,-18,-18,-19,-18,-16,-13,-9,-5,-2,1,6,11,15,18,21,24,27,29,32,33,35,36,36,36,36,34,32,29,25,21,14,2,-7,-12,-17,-20,-23,-25,-25,-23,-20,-16,-1,25,69,134,216,313,416,507,555,554,498,369,205,51,-56,-96,-99,-73,-50,-44,-41,-38,-34,-31,-29,-28,-27,-25,-25,-25,-25,-25,-25,-24,-23,-22,-22,-22,-21,-21,-20,-20,-19,-19,-18,-18,-17,-16,-15,-14,-12,-11,-9,-7,-4,-2,0,1,2,4,5,7,8,10,12,15,18,23,27,32,38,44,51,58,65,72,80,86,93,97,99,102,104,105,107,107,108,108,108,107,106,105,103,101,98,94,86,69,53,39,29,21,10,-3,-21,-29,-32,-34,-36,-38,-39,-40,-42,-43,-43,-44,-44,-45,-45,-45,-45,-45,-44,-44,-43,-43,-42,-42,-41,-41,-39,-38,-38,-37,-36,-35,-34,-33,-32,-31,-30,-29,-28,-27,-25,-24,-22,-21,-19,-17,-16,-14,-13,-11,-10,-9,-8,-7,-6,-5,-5,-5,-4,-4,-3,-3,-3,-2,-2,-2,-2,-2,-2,-2,-3,-4,-5,-5,-5,-6,-6,-7,-7,-7,-7,-7,-7,-7,-8,-9,-9,-10,-11,-12,-13,-13,-14,-14,-15,-16,-18,-20,-21,-21,-19,-17,-15,-13,-12,-10,-9,-7,-6,-5,-4,-3,-4,-4,-5,-6,-8,-9,-10,-11,-12,-14,-15,-16,-17,-18,-18,-19,-18,-18,-17,-16,-14,-12,-10,-7,-5,-3,0,2,5,7,9,10,11,12,12,13,14,14,15,17,18,15,7,0,-11,-20,-27,-34,-40,-45,-49,-53,-56,-57,-55,-52,-42,-19,18,72,144,236,338,440,515,540,497,386,225,54,-84,-160,-173,-161,-120,-86,-70,-63,-59,-57,-55,-53,-50,-47,-43,-40,-37,-32,-27,-24,-21,-20,-19,-18,-17,-15,-15,-14,-14,-14,-13,-12,-11,-10,-9,-8,-6,-5,-3,-1,0,2,6,12,19,23,25,27,29,31,33,36,39,43,47,51,57,63,68,74,80,87,93,99,105,113,122,126,129,131,133,134,135,136,136,136,135,134,132,130,126,122,113,98,87,77,66,55,44,32,21,13,5,-1,-5,-10,-16,-21,-26,-29,-32,-35,-37,-39,-40,-42,-43,-44,-44,-45,-46,-46,-47,-47,-48,-48,-48,-48,-48,-48,-47,-47,-46,-45,-44,-43,-42,-41,-39,-37,-36,-35,-34,-33,-32,-31,-31,-30,-30,-30,-29,-29,-28,-28,-28,-28,-28,-29,-29,-30,-31,-33,-35,-37,-39,-41,-47,-59,-70,-81,-94,-106,-114,-119,-122,-122,-119,-116,-114,-113,-112,-111,-110,-108,-107,-106,-104,-103,-101,-99,-98,-97,-96,-95,-94,-92,-91,-90,-88,-87,-84,-82,-79,-77,-75,-74,-72,-70,-67,-64,-62,-60,-59,-58,-57,-55,-54,-53,-51,-50,-49,-47,-45,-42,-38,-35,-31,-26,-21,-17,-14,-9,-2,4,8,11,13,14,16,18,20,23,25,27,30,33,36,39,39,37,34,30,25,17,10,7,4,2,0,-1,-2,-4,-5,-7,-10,-9,0,24,64,125,206,302,403,495,549,551,505,384,227,69,-51,-109,-117,-102,-67,-37,-22,-11,-3,3,8,14,14,10,6,2,0,0,6,11,14,16,17,18,19,20,21,22,23,23,23,24,25,25,25,26,26,26,26,27,27,28,28,29,30,32,33,35,38,40,42,45,47,50,54,58,64,69,75,81,87,92,97,102,111,123,127,130,132,133,134,135,135,135,134,132,131,128,126,122,118,113,107,100,87,68,53,41,32,22,13,3,-3,-8,-12,-16,-21,-25,-27,-29,-31,-33,-34,-36,-37,-39,-40,-41,-42,-43,-44,-44,-45,-45,-45,-44,-44,-43,-42,-41,-39,-38,-37,-35,-33,-32,-31,-30,-29,-28,-28,-27,-26,-25,-24,-24,-23,-22,-22,-22,-22,-22,-22,-22,-22,-22,-22,-22,-22,-21,-21,-20,-20,-19,-19,-18,-18,-18,-18,-19,-20,-20,-21,-22,-22,-23,-23,-24,-24,-25,-25,-26,-27,-29,-30,-31,-32,-31,-29,-25,-22,-19,-16,-14,-12,-10,-9,-7,-6,-5,-5,-4,-3,-3,-3,-2,-1,0,0,1,2,2,3,3,4,4,4,5,5,6,8,9,11,14,16,17,18,19,19,19,18,18,17,17,17,17,18,19,21,22,24,27,30,34,37,40,42,46,49,53,56,57,57,56,54,51,46,40,29,19,12,6,1,-3,-8,-13,-19,-23,-22,-19,-13,5,42,97,170,258,355,451,527,549,538,455,312,145,-6,-110,-148,-151,-127,-96,-77,-58,-41,-31,-23,-20,-21,-24,-26,-29,-31,-25,-17,-12,-10,-8,-6,-4,-3,-1,0,1,3,4,5,6,6,7,7,8,8,10,11,13,15,18,21,24,28,32,37,44,51,56,61,67,73,80,86,94,104,116,124,130,135,140,145,148,151,154,156,158,160,161,161,160,157,154,150,145,139,128,120,114,106,97,87,76,66,54,42,30,22,11,-3,-14,-21,-27,-33,-37,-42,-46,-48,-50,-52,-53,-54,-55,-56,-58,-60,-62,-65,-67,-69,-70,-73,-76,-79,-80,-78,-76,-74,-72,-71,-70,-69,-68,-67,-66,-66,-66,-65,-65,-65,-65,-65,-66,-65,-65,-64,-62,-61,-60,-59,-58,-57,-56,-55,-55,-55,-55,-54,-53,-53,-52,-51,-50,-49,-48,-47,-47,-47,-47,-48,-48,-48,-48,-49,-49,-49,-49,-49,-49,-49,-49,-49,-49,-49,-49,-50,-50,-51,-51,-51,-51,-50,-50,-51,-51,-51,-50,-50,-49,-49,-50,-50,-50,-48,-45,-42,-41,-40,-39,-38,-37,-36,-36,-36,-36,-37,-37,-38,-38,-38,-38,-37,-37,-36,-34,-33,-31,-30,-28,-27,-25,-24,-22,-21,-19,-17,-14,-11,-8,-5,-3,-1,0,1,3,4,6,8,11,16,21,26,30,34,37,39,37,32,26,20,13,6,2,-1,-6,-13,-24,-33,-39,-44,-46,-44,-39,-30,-4,52,128,220,326,437,534,581,577,507,364,193,40,-62,-98,-100,-78,-53,-46,-42,-38,-33,-29,-26,-24,-22,-20,-18,-16,-15,-14,-13,-12,-11,-9,-8,-7,-7,-7,-7,-7,-7,-8,-8,-9,-9,-9,-9,-8,-8,-7,-6,-5,-5,-4,-3,-2,-1,0,0,2,4,7,12,16,20,24,29,33,38,43,48,53,58,62,66,70,75,79,84,88,91,93,96,99,101,102,103,102,102,101,99,97,94,88,75,61,46,32,21,8,-3,-14,-22,-29,-35,-41,-48,-56,-60,-64,-66,-69,-70,-71,-71,-71,-70,-68,-67,-65,-64,-63,-62,-61,-61,-60,-60,-60,-59,-59,-59,-59,-58,-58,-58,-57,-57,-57,-56,-56,-55,-55,-55,-54,-53,-52,-50,-49,-47,-46,-44,-42,-41,-40,-38,-37,-36,-35,-33,-32,-30,-28,-26,-24,-23,-21,-20,-18,-17,-16,-15,-14,-13,-12,-12,-10,-9,-7,-5,-4,-3,-2,-1,0,0,0,1,1,2,3,4,5,7,8,9,11,13,15,16,18,19,20,21,23,24,25,25,26,27,28,29,30,31,31,32,33,34,35,35,35,35,35,35,35,34,33,32,31,31,30,30,30,29,29,29,29,29,28,28,27,26,25,25,29,35,41,46,52,58,63,67,70,72,75,80,88,97,103,107,110,112,112,110,105,100,90,71,57,49,43,37,31,24,14,10,6,3,2,5,14,40,90,166,266,383,502,601,636,625,534,379,206,56,-39,-63,-71,-58,-42,-28,-16,-10,-7,-4,-2,0,1,3,4,5,5,6,7,8,8,8,8,9,9,10,11,11,12,13,13,14,16,17,19,20,22,24,27,30,33,36,40,44,47,51,54,57,60,63,65,67,70,73,76,78,81,84,87,92,100,108,116,121,125,128,131,133,134,134,134,132,130,127,123,118,110,96,87,76,62,48,33,18,4,-6,-15,-25,-35,-45,-54,-63,-72,-82,-90,-96,-101,-105,-108,-109,-110,-111,-111,-112,-112,-112,-112,-113,-114,-114,-114,-114,-114,-114,-115,-115,-115,-115,-114,-114,-113,-113,-112,-112,-111,-110,-109,-108,-107,-107,-105,-103,-96,-90,-84,-82,-80,-78,-76,-74,-73,-72,-71,-70,-68,-67,-66,-66,-65,-65,-64,-64,-63,-62,-62,-61,-61,-60,-59,-58,-57,-56,-55,-53,-52,-50,-48,-46,-44,-43,-42,-41,-40,-38,-37,-36,-35,-34,-33,-32,-31,-31,-31,-31,-31,-30,-30,-29,-29,-28,-28,-27,-27,-26,-26,-26,-25,-25,-24,-24,-23,-22,-21,-21,-20,-20,-19,-19,-18,-18,-17,-16,-15,-13,-12,-11,-10,-9,-8,-7,-6,-5,-3,-1,0,4,7,10,13,16,20,28,42,49,51,53,55,56,58,60,62,63,65,67,68,70,72,76,80,81,79,75,70,63,53,45,40,36,33,29,26,23,19,15,10,7,10,18,42,91,165,262,375,491,590,637,634,566,429,260,102,-12,-52,-65,-51,-28,-8,-1,2,5,7,7,7,5,3,0,-3,-7,-13,-18,-21,-23,-25,-27,-28,-30,-31,-31,-30,-28,-26,-23,-21,-18,-14,-10,-8,-7,-7,-7,-7,-6,-6,-6,-5,-5,-4,-3,-2,-1,0,1,2,4,8,14,21,27,35,44,54,66,76,85,92,96,100,102,103,104,105,106,108,108,109,109,107,105,102,97,91,80,72,65,59,53,45,34,19,7,-1,-9,-17,-26,-36,-44,-50,-56,-61,-66,-68,-70,-71,-72,-73,-74,-75,-76,-76,-77,-78,-79,-80,-80,-81,-82,-82,-82,-81,-80,-78,-77,-77,-75,-74,-73,-72,-72,-71,-71,-71,-70,-69,-68,-67,-66,-64,-63,-61,-60,-59,-58,-57,-56,-55,-55,-54,-53,-53,-52,-51,-50,-49,-49,-48,-48,-47,-46,-46,-45,-45,-44,-44,-43,-43,-43,-43,-43,-43,-43,-43,-43,-43,-43,-42,-42,-41,-40,-39,-39,-39,-39,-39,-39,-39,-39,-39,-39,-39,-39,-38,-37,-36,-34,-34,-33,-32,-30,-29,-28,-27,-26,-25,-24,-23,-21,-20,-19,-17,-16,-15,-14,-13,-12,-11,-10,-9,-8,-6,-4,-1,1,5,8,12,16,20,24,29,33,36,39,41,43,45,46,48,49,51,53,55,57,59,62,66,72,83,88,91,94,96,93,87,76,59,48,42,38,33,29,24,20,14,10,8,9,12,15,25,58,107,173,253,347,446,539,596,600,557,435,274,110,-14,-70,-77,-55,-16,1,6,9,12,13,15,16,17,18,18,19,19,18,18,18,18,19,20,21,22,23,24,25,25,26,26,27,27,28,28,29,29,30,31,31,32,32,33,33,34,35,35,36,36,36,37,37,38,40,41,44,48,58,68,78,88,99,111,121,129,132,134,136,137,138,139,140,140,139,138,137,135,133,129,123,109,96,86,75,64,53,41,29,17,7,-4,-20,-33,-39,-45,-51,-56,-59,-61,-62,-64,-65,-67,-68,-70,-71,-73,-74,-75,-76,-77,-77,-78,-79,-80,-82,-84,-85,-85,-83,-81,-77,-74,-71,-68,-65,-62,-59,-56,-54,-51,-49,-47,-46,-44,-43,-41,-40,-38,-37,-35,-33,-31,-30,-30,-30,-29,-29,-29,-29,-29,-29,-28,-26,-24,-23,-24,-26,-29,-31,-33,-35,-36,-39,-40,-41,-41,-41,-39,-38,-37,-36,-36,-35,-34,-34,-33,-33,-33,-33,-32,-32,-32,-31,-31,-30,-30,-29,-27,-26,-24,-23,-21,-19,-16,-14,-13,-11,-10,-9,-8,-7,-7,-6,-6,-6,-5,-5,-5,-4,-4,-3,-3,-3,-3,-3,-3,-3,-4,-3,-3,-2,-2,0,0,2,5,7,11,19,26,34,38,41,43,45,47,49,51,54,57,59,62,64,67,69,72,75,77,78,80,82,82,83,82,80,78,76,72,69,63,51,41,31,21,15,10,5,3,5,11,29,58,105,172,261,367,476,569,603,596,521,385,224,82,-13,-41,-50,-36,-18,-3,1,3,5,7,9,10,11,12,14,14,15,16,16,17,19,20,21,21,19,16,13,11,9,7,5,3,1,0,0,0,0,1,2,3,5,7,8,10,11,13,14,16,19,21,24,27,31,37,48,67,79,89,100,107,112,116,121,124,128,130,132,134,136,138,140,141,141,139,137,135,131,127,120,108,96,81,64,48,33,22,13,2,-8,-19,-28,-35,-42,-49,-57,-62,-65,-68,-70,-73,-75,-76,-78,-79,-80,-81,-81,-82,-83,-84,-86,-88,-90,-90,-88,-86,-85,-84,-83,-83,-82,-81,-80,-80,-79,-79,-78,-77,-76,-76,-75,-73,-72,-71,-70,-69,-68,-67,-65,-64,-63,-62,-62,-61,-60,-59,-58,-57,-56,-56,-55,-54,-54,-53,-53,-52,-51,-51,-51,-51,-50,-50,-50,-49,-48,-48,-47,-47,-46,-45,-45,-45,-45,-45,-45,-45,-45,-45,-44,-44,-43,-42,-41,-41,-40,-40,-39,-39,-38,-38,-37,-37,-36,-35,-34,-33,-32,-31,-30,-28,-27,-27,-26,-26,-25,-24,-24,-23,-23,-23,-23,-23,-22,-22,-21,-20,-20,-19,-19,-18,-17,-16,-14,-13,-11,-8,-4,5,13,19,26,34,45,51,54,56,58,60,61,62,64,66,67,69,70,71,73,74,76,77,79,81,83,85,85,82,78,74,68,64,58,52,48,44,42,39,36,32,29,31,37,54,89,145,225,327,441,551,635,663,620,508,348,179,47,-14,-35,-22,-8,3,9,13,15,17,18,19,20,22,24,25,26,27,28,29,29,30,30,31,31,32,32,33,33,33,33,34,34,34,34,34,35,35,36,37,38,39,40,41,43,44,46,48,50,54,58,62,66,68,71,73,76,78,81,83,86,89,92,96,101,107,114,120,126,131,135,137,138,138,139,141,141,139,132,122,109,97,84,71,55,38,20,2,-13,-28,-43,-56,-65,-74,-78,-81,-83,-84,-85,-86,-87,-89,-90,-91,-92,-92,-93,-94,-94,-94,-95,-95,-95,-96,-96,-96,-97,-97,-97,-97,-97,-97,-97,-96,-95,-95,-94,-93,-92,-91,-90,-89,-88,-87,-85,-84,-82,-81,-79,-76,-74,-73,-71,-71,-70,-69,-68,-67,-66,-65,-65,-64,-63,-63,-63,-63,-63,-64,-64,-63,-63,-62,-61,-60,-59,-57,-56,-54,-53,-51,-50,-48,-46,-44,-42,-39,-36,-33,-30,-28,-26,-25,-23,-22,-21,-20,-18,-17,-16,-14,-12,-11,-10,-9,-9,-8,-8,-7,-7,-7,-7,-6,-6,-6,-6,-6,-7,-7,-7,-7,-7,-7,-7,-6,-6,-5,-5,-4,-4,-4,-3,-3,-3,-3,-3,-2,-1,0,0,2,3,4,5,6,6,6,7,7,8,9,11,13,15,18,21,25,29,34,40,49,54,56,57,59,60,58,52,42,29,18,10,0,-6,-11,-15,-18,-20,-20,-19,-17,-13,-8,8,40,88,157,248,361,480,579,628,604,503,350,180,32,-61,-92,-94,-73,-46,-31,-21,-16,-12,-8,-3,0,2,5,6,8,9,10,11,12,12,13,13,14,14,14,15,15,15,15,15,15,16,17,17,18,19,19,20,21,23,26,28,30,32,33,35,37,38,39,40,41,42,44,46,48,51,54,59,70,79,84,88,92,95,98,101,104,106,109,110,112,113,114,114,114,113,112,110,107,104,100,91,83,75,66,58,46,31,14,0,-15,-27,-39,-51,-63,-76,-84,-88,-91,-93,-95,-95,-94,-92,-89,-86,-84,-83,-81,-79,-77,-76,-75,-75,-74,-74,-73,-73,-73,-74,-74,-75,-75,-75,-76,-77,-76,-74,-71,-67,-62,-57,-53,-51,-49,-48,-46,-45,-45,-44,-44,-43,-42,-41,-40,-39,-38,-37,-36,-36,-35,-34,-33,-32,-30,-29,-26,-24,-22,-22,-22,-24,-25,-27,-29,-32,-34,-32,-28,-27,-26,-25,-24,-23,-23,-22,-21,-21,-20,-20,-20,-20,-20,-20,-20,-20,-20,-20,-20,-20,-19,-18,-17,-17,-16,-16,-15,-15,-14,-14,-14,-14,-14,-14,-13,-13,-12,-12,-11,-10,-10,-9,-9,-9,-8,-8,-7,-6,-5,-4,-3,-1,0,2,5,8,11,13,16,19,22,25,27,27,26,26,25,25,23,21,21,28,34,38,42,43,44,44,45,46,48,45,40,36,32,27,23,19,13,5,-3,-13,-24,-31,-35,-35,-27,-5,36,100,186,289,402,508,578,586,551,434,275,118,-4,-75,-91,-89,-71,-57,-43,-29,-21,-18,-16,-14,-12,-11,-9,-7,-5,-4,-2,0,0,0,0,0,1,2,3,4,5,6,7,8,9,10,11,12,12,13,13,14,14,15,16,18,19,22,25,28,31,33,36,38,40,43,46,49,52,55,58,63,70,77,82,89,97,104,111,118,128,134,138,141,143,144,145,143,140,136,132,126,118,111,106,100,92,82,69,51,35,23,13,4,-5,-18,-28,-35,-40,-43,-46,-48,-49,-49,-50,-51,-52,-52,-53,-53,-54,-54,-54,-54,-54,-54,-54,-54,-54,-55,-55,-56,-56,-56,-55,-55,-55,-54,-54,-53,-52,-52,-52,-52,-52,-51,-51,-50,-49,-48,-47,-46,-45,-45,-44,-44,-44,-44,-44,-45,-44,-44,-43,-43,-42,-41,-40,-40,-39,-39,-39,-39,-39,-39,-39,-39,-39,-39,-39,-38,-38,-37,-37,-37,-38,-39,-40,-40,-41,-41,-41,-41,-42,-41,-41,-40,-39,-39,-38,-37,-34,-31,-28,-26,-24,-23,-22,-20,-18,-16,-15,-15,-14,-14,-14,-14,-14,-14,-15,-15,-15,-14,-14,-13,-13,-12,-12,-11,-10,-9,-8,-7,-6,-5,-4,-2,-1,0,1,2,4,6,9,11,14,16,17,19,21,22,24,25,25,26,27,29,31,33,35,36,37,36,35,33,30,27,23,16,9,3,-4,-13,-20,-26,-31,-30,-22,0,32,80,145,228,325,424,508,544,539,474,345,186,35,-73,-112,-126,-130,-128,-121,-111,-91,-79,-74,-71,-68,-66,-64,-62,-60,-58,-57,-55,-54,-53,-53,-53,-53,-52,-51,-49,-48,-46,-44,-42,-39,-37,-34,-32,-29,-26,-24,-21,-19,-16,-14,-11,-9,-6,-3,0,2,5,10,15,20,25,30,35,40,46,50,55,62,70,81,89,95,100,105,110,114,117,120,123,125,127,128,128,127,125,122,118,114,107,95,87,80,73,63,51,35,21,11,1,-7,-16,-25,-28,-29,-31,-32,-33,-34,-35,-36,-37,-37,-38,-38,-39,-39,-40,-40,-40,-41,-41,-42,-42,-43,-43,-43,-43,-43,-43,-43,-43,-42,-42,-41,-40,-39,-39,-38,-38,-37,-36,-35,-35,-34,-34,-33,-31,-30,-28,-27,-26,-25,-25,-25,-25,-25,-26,-28,-29,-30,-31,-32,-32,-33,-34,-35,-36,-36,-36,-36,-36,-36,-36,-36,-36,-36,-36,-36,-37,-37,-36,-36,-35,-34,-33,-32,-30,-28,-27,-25,-24,-23,-22,-21,-20,-20,-19,-19,-18,-17,-16,-16,-15,-14,-14,-13,-13,-13,-13,-13,-13,-13,-13,-13,-12,-12,-12,-11,-10,-9,-8,-7,-5,-4,-2,-1,0,1,4,6,9,11,13,15,17,19,20,21,23,24,26,29,35,39,42,45,47,49,50,48,42,36,27,15,5,0,-4,-8,-11,-13,-15,-16,-19,-22,-22,-14,7,42,94,164,251,348,446,525,560,534,443,302,144,9,-78,-109,-111,-89,-60,-44,-37,-34,-32,-31,-29,-28,-27,-25,-22,-20,-17,-15,-13,-12,-11,-10,-9,-9,-8,-7,-5,-4,-2,-1,0,0,1,2,3,4,4,4,4,4,4,5,6,7,8,10,14,18,22,27,32,37,43,49,54,59,65,74,83,92,101,112,120,126,131,135,138,141,143,146,148,148,147,144,140,136,130,122,115,110,101,89,78,65,52,37,21,5,-11,-29,-40,-44,-48,-51,-54,-57,-59,-62,-64,-66,-68,-71,-73,-75,-76,-78,-79,-80,-82,-83,-84,-86,-88,-91,-92,-91,-88,-84,-83,-81,-80,-79,-78,-76,-75,-73,-72,-71,-70,-69,-69,-68,-68,-67,-67,-67,-66,-65,-64,-62,-61,-59,-57,-56,-54,-53,-51,-50,-49,-48,-47,-47,-46,-45,-44,-43,-42,-40,-39,-38,-38,-38,-37,-37,-37,-37,-37,-38,-39,-39,-39,-39,-38,-38,-38,-37,-37,-37,-36,-36,-36,-36,-36,-35,-35,-34,-33,-33,-32,-31,-30,-29,-28,-27,-27,-26,-26,-25,-24,-23,-22,-21,-21,-20,-19,-18,-18,-18,-17,-16,-15,-14,-12,-9,-5,3,14,24,34,42,50,56,60,61,62,63,64,64,65,66,68,69,71,72,74,75,77,81,85,87,89,91,94,96,94,88,81,73,65,56,41,24,8,-8,-23,-32,-38,-40,-37,-29,-5,34,91,167,262,374,483,567,596,555,442,280,109,-29,-103,-114,-97,-54,-30,-21,-21,-24,-27,-30,-31,-28,-21,-14,-7,-3,-2,-1,0,0,0,0,0,-2,-5,-8,-10,-13,-15,-18,-19,-20,-19,-19,-17,-15,-13,-10,-5,0,6,10,12,14,17,19,21,23,25,27,30,34,40,51,59,65,71,77,83,89,94,100,105,110,115,119,120,122,123,124,125,125,126,126,125,122,119,115,107,93,83,74,64,51,32,18,8,0,-6,-11,-16,-20,-25,-31,-36,-41,-46,-50,-54,-57,-60,-62,-63,-64,-65,-66,-66,-66,-67,-67,-67,-67,-68,-68,-69,-69,-69,-69,-69,-69,-69,-68,-68,-67,-66,-65,-64,-63,-62,-61,-60,-60,-59,-58,-57,-56,-54,-52,-49,-45,-42,-39,-36,-33,-31,-28,-27,-25,-24,-23,-23,-22,-20,-19,-19,-18,-17,-17,-16,-16,-15,-15,-14,-14,-13,-12,-11,-10,-9,-8,-7,-6,-5,-4,-4,-3,-3,-2,-1,0,0,0,1,1,1,2,2,2,2,2,2,2,2,3,3,3,2,2,3,3,3,4,4,5,6,6,7,7,8,8,9,10,11,12,13,14,16,17,19,20,22,27,32,35,36,37,38,38,39,40,41,42,44,46,48,50,52,55,57,60,64,66,66,63,58,51,42,27,17,9,2,-4,-10,-16,-21,-25,-27,-26,-22,-16,2,46,111,197,299,407,506,569,573,531,410,248,87,-37,-98,-118,-109,-94,-76,-64,-58,-53,-46,-40,-35,-31,-27,-23,-20,-18,-16,-15,-15,-14,-14,-14,-14,-13,-13,-13,-13,-13,-13,-13,-13,-12,-12,-13,-13,-13,-12,-11,-11,-10,-9,-8,-7,-6,-4,-2,-1,0,2,6,10,14,18,22,26,30,35,41,47,52,58,66,78,85,90,94,98,103,108,111,115,118,120,121,120,117,112,107,101,92,84,77,69,59,48,37,26,15,5,-2,-10,-17,-24,-32,-37,-42,-44,-45,-46,-47,-48,-49,-49,-49,-50,-51,-51,-51,-51,-51,-51,-51,-50,-50,-49,-48,-47,-46,-46,-45,-44,-43,-42,-41,-40,-39,-37,-36,-34,-32,-29,-25,-21,-18,-16,-14,-13,-13,-12,-11,-10,-10,-10,-10,-10,-10,-10,-9,-9,-9,-9,-8,-8,-8,-8,-8,-9,-9,-9,-9,-9,-9,-9,-9,-9,-8,-8,-7,-7,-7,-6,-6,-6,-6,-6,-6,-5,-5,-4,-4,-4,-4,-4,-3,-3,-4,-4,-5,-5,-6,-7,-7,-8,-9,-9,-10,-10,-11,-11,-12,-12,-12,-13,-13,-14,-14,-14,-15,-15,-17,-18,-19,-19,-19,-19,-19,-19,-19,-19,-18,-18,-17,-18,-18,-17,-17,-16,-15,-14,-12,-11,-9,-7,-5,-3,-1,1,4,7,10,13,17,21,24,24,21,17,11,4,-6,-15,-24,-33,-44,-52,-59,-64,-68,-72,-77,-83,-83,-77,-61,-27,24,100,203,328,457,561,604,563,442,266,80,-66,-130,-151,-131,-111,-97,-88,-83,-79,-71,-57,-51,-49,-46,-44,-42,-41,-41,-40,-39,-38,-37,-37,-37,-38,-39,-40,-40,-40,-41,-41,-41,-42,-42,-43,-43,-44,-45,-46,-47,-47,-47,-45,-42,-39,-36,-32,-26,-20,-13,-8,-4,-1,0,3,5,7,9,11,13,18,27,39,51,60,67,74,80,86,90,93,95,97,99,101,102,103,102,99,95,90,79,63,51,42,32,20,4,-11,-26,-36,-43,-49,-56,-61,-64,-66,-69,-70,-73,-75,-77,-79,-81,-83,-85,-86,-88,-90,-91,-93,-94,-94,-95,-94,-93,-91,-89,-86,-84,-81,-79,-78,-77,-75,-73,-72,-71,-70,-69,-68,-67,-66,-65,-65,-65,-65,-64,-64,-64,-64,-64,-65,-65,-65,-65,-65,-65,-65,-65,-64,-64,-64,-64,-65,-65,-66,-66,-66,-65,-65,-65,-65,-65,-64,-64,-64,-65,-66,-67,-67,-65,-63,-62,-61,-60,-59,-58,-56,-54,-53,-51,-49,-47,-45,-44,-42,-42,-41,-39,-38,-37,-35,-34,-33,-32,-30,-29,-29,-28,-28,-28,-27,-27,-27,-26,-26,-26,-26,-25,-25,-25,-24,-24,-24,-23,-23,-22,-21,-19,-16,-7,1,7,10,12,14,16,19,21,23,25,26,28,31,35,42,45,45,46,46,47,47,46,43,37,28,14,6,3,0,-2,-4,-4,-4,-4,-3,-1,1,4,16,45,92,160,244,341,439,526,573,571,515,381,210,45,-69,-109,-110,-79,-43,-26,-17,-11,-5,1,6,9,12,15,17,20,22,24,26,27,27,28,29,29,29,29,29,29,30,31,32,32,33,34,35,37,38,39,39,40,41,43,45,47,49,51,53,56,58,60,62,64,66,68,72,81,91,98,103,107,111,116,120,125,132,138,144,149,155,160,165,168,171,173,174,175,174,172,168,164,158,149,138,123,106,90,77,66,54,41,27,16,11,6,1,-2,-10,-23,-29,-31,-33,-34,-36,-37,-38,-39,-39,-39,-39,-40,-40,-39,-39,-39,-39,-39,-38,-38,-37,-37,-36,-35,-35,-34,-33,-32,-31,-30,-29,-29,-28,-28,-27,-26,-25,-24,-23,-22,-21,-20,-19,-19,-18,-17,-16,-16,-15,-15,-14,-14,-14,-14,-14,-14,-14,-14,-14,-14,-14,-14,-13,-13,-13,-13,-13,-13,-13,-13,-12,-11,-11,-10,-9,-8,-8,-7,-7,-6,-6,-6,-6,-6,-5,-5,-5,-4,-3,-3,-3,-2,-2,-2,-2,-1,-1,-1,0,0,0,0,1,1,1,1,1,2,2,2,2,3,3,3,4,4,5,6,6,7,7,9,11,13,17,22,33,39,41,44,46,47,48,49,49,49,49,49,47,46,43,41,38,36,33,30,26,23,20,18,16,14,13,10,8,4,2,5,13,35,78,142,225,326,432,523,559,551,474,332,164,14,-82,-108,-108,-76,-43,-27,-20,-17,-15,-13,-11,-9,-6,-2,0,2,4,5,7,9,11,13,14,16,17,19,20,20,19,19,18,18,18,18,18,18,19,22,18,16,14,12,11,10,10,12,15,18,21,26,32,38,44,50,56,63,69,75,80,84,88,93,97,103,109,115,121,124,126,129,131,132,133,133,132,131,129,126,123,117,103,90,75,59,43,30,20,12,6,0,-4,-10,-16,-24,-35,-43,-49,-53,-56,-59,-62,-64,-65,-67,-68,-69,-69,-70,-69,-68,-67,-65,-64,-63,-62,-62,-61,-61,-61,-61,-62,-62,-61,-60,-60,-59,-58,-57,-57,-55,-54,-54,-53,-52,-51,-49,-46,-39,-36,-34,-33,-31,-30,-30,-34,-38,-40,-41,-42,-43,-44,-45,-47,-48,-48,-49,-49,-50,-50,-50,-51,-51,-51,-51,-52,-52,-53,-53,-54,-54,-54,-55,-55,-55,-55,-55,-56,-56,-56,-56,-57,-57,-57,-58,-59,-61,-60,-55,-50,-48,-47,-46,-45,-44,-43,-42,-42,-41,-41,-40,-39,-39,-38,-38,-38,-37,-36,-36,-36,-36,-35,-35,-34,-34,-33,-33,-32,-32,-31,-30,-29,-28,-28,-27,-26,-24,-21,-19,-16,-13,-10,-7,-4,0,3,6,8,10,12,14,16,17,19,20,19,18,15,10,5,-1,-13,-21,-27,-31,-36,-40,-44,-48,-53,-55,-52,-43,-20,18,78,158,258,366,465,529,535,499,386,233,75,-47,-105,-113,-96,-63,-43,-38,-36,-32,-28,-25,-24,-22,-21,-19,-19,-18,-17,-17,-16,-15,-14,-14,-13,-12,-10,-9,-8,-8,-7,-6,-5,-4,-3,-3,-3,-3,-2,-1,0,0,0,1,2,3,4,4,4,5,5,7,8,10,14,22,31,40,48,56,61,66,72,78,85,93,103,110,114,118,121,124,125,128,131,133,130,123,118,113,108,104,99,91,76,64,57,51,45,37,23,6,-7,-16,-20,-24,-28,-32,-35,-38,-39,-41,-43,-44,-46,-46,-46,-46,-47,-47,-47,-48,-48,-48,-49,-49,-50,-51,-53,-55,-57,-59,-60,-62,-63,-64,-65,-65,-63,-60,-57,-53,-50,-47,-45,-42,-39,-36,-33,-31,-29,-28,-27,-27,-27,-28,-28,-29,-28,-28,-26,-24,-24,-24,-25,-25,-25,-26,-27,-27,-25,-22,-20,-19,-18,-18,-17,-16,-15,-14,-14,-14,-14,-14,-13,-13,-13,-13,-14,-14,-15,-15,-15,-15,-16,-16,-16,-16,-15,-15,-14,-14,-14,-14,-14,-13,-13,-13,-12,-12,-12,-12,-12,-12,-12,-11,-11,-11,-11,-11,-11,-10,-10,-9,-9,-8,-7,-7,-6,-5,-4,-2,-1,0,3,7,12,16,21,26,29,32,35,38,40,42,44,46,47,49,51,54,59,67,70,73,76,67,56,45,36,28,22,16,11,5,0,-5,-10,-15,-21,-21,-14,4,45,105,186,284,392,496,574,599,556,446,295,141,17,-42,-61,-50,-29,-17,-15,-13,-13,-12,-11,-10,-8,-6,-4,-2,-1,0,1,2,4,5,6,7,8,9,9,9,9,8,8,8,7,7,7,7,7,7,7,7,7,7,7,7,8,8,9,10,11,12,13,15,19,26,32,38,45,54,63,71,77,82,89,95,100,104,108,111,114,116,117,119,119,121,122,124,125,126,125,124,121,117,112,101,83,68,57,46,35,25,13,1,-10,-20,-28,-35,-40,-45,-46,-47,-48,-49,-49,-49,-49,-49,-50,-51,-51,-52,-52,-52,-52,-52,-52,-51,-51,-50,-50,-49,-48,-48,-47,-47,-46,-46,-46,-46,-45,-44,-43,-41,-40,-39,-38,-37,-36,-35,-34,-33,-32,-31,-30,-29,-28,-27,-27,-26,-25,-25,-24,-24,-24,-24,-24,-24,-24,-24,-24,-25,-25,-25,-25,-25,-25,-25,-25,-25,-25,-25,-25,-25,-25,-26,-26,-26,-25,-25,-25,-25,-25,-24,-24,-23,-23,-23,-23,-23,-23,-22,-22,-22,-22,-22,-22,-22,-22,-22,-22,-22,-22,-22,-22,-21,-21,-20,-19,-19,-18,-17,-17,-16,-15,-14,-12,-11,-8,-4,0,3,5,8,10,12,14,15,17,18,19,20,22,24,27,29,32,35,38,41,45,48,51,53,55,58,60,64,67,69,69,66,61,55,47,34,23,13,2,-8,-15,-21,-25,-27,-26,-24,-20,-9,20,67,134,225,334,450,555,613,614,558,422,249,82,-42,-92,-108,-95,-72,-52,-41,-34,-27,-19,-16,-14,-12,-9,-7,-6,-5,-5,-4,-4,-4,-4,-4,-5,-6,-7,-8,-9,-10,-10,-11,-11,-12,-12,-13,-13,-14,-15,-15,-15,-15,-13,-10,-7,-3,-1,1,4,7,9,12,14,16,17,19,21,24,29,39,49,57,65,72,80,85,90,93,96,97,98,98,99,99,100,101,102,102,102,100,96,91,84,73,64,50,34,21,14,7,2,-6,-21,-31,-36,-40,-44,-48,-51,-54,-56,-58,-60,-61,-61,-62,-62,-62,-62,-63,-65,-65,-66,-66,-65,-64,-64,-63,-63,-63,-65,-67,-68,-69,-69,-70,-71,-72,-73,-73,-74,-74,-74,-74,-74,-75,-75,-75,-75,-75,-74,-74,-73,-73,-72,-71,-70,-68,-67,-66,-65,-64,-62,-60,-59,-58,-56,-54,-51,-48,-45,-43,-43,-44,-45,-46,-46,-47,-47,-49,-51,-52,-53,-52,-50,-46,-43,-40,-37,-34,-30,-27,-24,-22,-20,-18,-17,-16,-14,-13,-13,-12,-12,-11,-10,-10,-9,-9,-8,-7,-6,-5,-4,-3,-3,-2,-1,-1,0,0,0,0,0,1,1,2,3,4,4,5,6,6,7,7,7,7,7,8,8,9,11,12,14,16,22,29,36,42,46,49,52,55,59,62,66,69,72,75,79,82,84,83,81,78,73,67,56,37,27,21,17,13,10,8,5,1,0,2,10,33,72,135,224,334,453,562,627,631,579,444,271,101,-23,-79,-86,-71,-40,-27,-22,-20,-18,-16,-13,-9,-6,-4,-3,-1,0,0,1,2,3,4,6,7,8,8,7,7,7,7,7,7,7,7,7,7,8,8,9,9,10,12,14,16,17,19,22,26,32,37,42,46,48,51,53,56,58,61,63,66,69,73,81,88,97,105,114,120,124,127,129,130,132,132,133,132,131,129,126,122,117,107,97,88,78,69,56,39,26,18,11,5,-2,-11,-23,-32,-38,-42,-46,-49,-51,-52,-53,-54,-54,-55,-56,-57,-57,-58,-59,-60,-61,-62,-62,-62,-62,-62,-63,-63,-65,-67,-69,-69,-64,-59,-56,-55,-53,-52,-50,-49,-48,-46,-45,-44,-43,-42,-41,-40,-40,-38,-37,-36,-34,-33,-31,-29,-28,-27,-26,-25,-24,-24,-23,-23,-23,-22,-22,-22,-22,-21,-21,-20,-20,-19,-19,-19,-19,-18,-18,-18,-19,-19,-19,-19,-18,-17,-16,-16,-15,-15,-14,-14,-14,-14,-13,-13,-13,-13,-12,-12,-12,-11,-11,-10,-9,-9,-9,-9,-9,-9,-9,-9,-9,-10,-10,-10,-11,-11,-12,-12,-12,-12,-12,-12,-12,-12,-12,-11,-11,-10,-9,-9,-8,-6,-5,-3,-2,0,1,3,5,8,10,12,14,16,18,20,21,23,25,27,30,33,36,37,35,33,29,24,15,-3,-17,-25,-30,-32,-33,-34,-35,-37,-38,-36,-31,-16,9,55,125,217,327,440,534,567,557,470,315,135,-22,-123,-147,-144,-107,-71,-45,-37,-33,-30,-29,-28,-28,-27,-26,-26,-26,-26,-26,-25,-24,-24,-23,-22,-21,-20,-19,-17,-15,-14,-13,-12,-11,-9,-8,-7,-5,-4,-3,-2,-1,0,0,1,2,2,3,5,6,7,9,11,13,18,24,29,34,41,49,58,64,69,74,79,86,92,96,99,103,106,108,110,112,112,112,112,111,110,108,105,102,96,83,70,58,45,31,14,-1,-12,-19,-25,-31,-39,-47,-58,-62,-63,-65,-66,-68,-69,-70,-71,-72,-72,-73,-73,-74,-74,-75,-75,-75,-75,-75,-75,-75,-75,-74,-74,-73,-73,-72,-72,-71,-70,-69,-68,-67,-66,-65,-63,-61,-57,-54,-52,-49,-47,-44,-42,-39,-37,-35,-33,-31,-30,-30,-30,-30,-31,-31,-32,-32,-33,-33,-34,-34,-35,-35,-36,-37,-38,-40,-41,-43,-45,-46,-47,-48,-49,-50,-52,-56,-58,-54,-46,-39,-30,-26,-23,-22,-21,-20,-19,-18,-18,-18,-18,-18,-18,-19,-20,-21,-22,-23,-23,-25,-27,-28,-28,-25,-21,-17,-14,-12,-10,-7,-5,-3,-2,-2,-2,-2,-2,-2,-2,-2,-3,-4,-4,-4,-3,0,3,6,10,13,17,20,24,27,29,33,37,42,48,54,59,64,68,68,68,68,68,68,68,68,68,66,64,60,54,41,29,19,11,0,-11,-20,-25,-20,-6,22,62,114,180,260,353,447,528,567,563,506,383,227,75,-35,-81,-85,-63,-37,-30,-26,-21,-14,-8,-2,2,7,12,15,17,18,19,19,20,21,22,22,22,22,22,22,22,23,23,24,23,23,22,22,21,22,22,23,23,25,26,28,29,30,31,31,32,33,35,37,39,42,44,46,49,51,54,56,59,62,67,72,78,84,90,96,101,105,109,114,120,127,131,135,138,139,138,134,129,123,114,104,90,75,60,45,30,16,3,-11,-21,-26,-30,-35,-39,-43,-47,-50,-53,-55,-58,-61,-64,-67,-68,-70,-72,-73,-75,-77,-79,-80,-81,-82,-82,-81,-80,-78,-76,-74,-71,-69,-67,-66,-64,-63,-62,-60,-59,-57,-55,-53,-51,-49,-48,-47,-46,-46,-46,-46,-46,-46,-45,-44,-44,-43,-42,-42,-41,-41,-40,-40,-41,-41,-42,-42,-41,-41,-41,-41,-41,-41,-41,-41,-41,-42,-43,-43,-44,-44,-44,-44,-44,-44,-43,-43,-42,-42,-41,-41,-40,-40,-40,-40,-40,-39,-39,-39,-38,-38,-37,-37,-36,-35,-35,-34,-34,-34,-34,-34,-33,-33,-33,-32,-31,-30,-29,-28,-28,-28,-29,-29,-30,-31,-33,-34,-36,-37,-38,-38,-34,-29,-23,-19,-14,-9,-4,-1,2,5,7,9,11,12,14,16,18,20,22,24,26,28,31,33,37,42,45,45,42,37,32,28,23,18,14,10,6,2,-2,-7,-12,-11,-8,-2,14,56,119,205,312,431,543,619,626,589,463,298,137,20,-22,-36,-24,-13,-6,-1,2,7,13,20,30,32,32,33,33,34,33,33,33,34,34,34,34,34,33,32,31,31,31,31,31,31,31,32,33,33,34,34,35,35,37,38,40,41,43,46,53,61,69,75,79,83,86,90,93,95,97,100,102,105,109,113,118,125,132,142,149,153,156,159,161,163,164,165,164,163,161,159,156,149,136,123,108,91,75,62,52,42,32,22,13,6,0,-6,-13,-16,-19,-21,-23,-24,-26,-28,-29,-31,-32,-34,-35,-36,-37,-38,-38,-38,-39,-40,-40,-42,-43,-44,-46,-47,-48,-49,-49,-50,-50,-50,-51,-51,-51,-51,-52,-52,-53,-53,-54,-54,-55,-54,-54,-53,-52,-51,-50,-49,-49,-48,-47,-46,-45,-45,-45,-45,-45,-46,-46,-47,-47,-47,-47,-46,-46,-45,-44,-43,-42,-41,-41,-41,-41,-41,-41,-40,-39,-38,-36,-35,-33,-31,-29,-28,-28,-27,-27,-26,-26,-26,-25,-24,-22,-21,-19,-19,-19,-19,-20,-21,-22,-23,-25,-24,-22,-22,-21,-20,-20,-19,-18,-18,-18,-18,-18,-18,-19,-20,-21,-21,-21,-21,-21,-20,-19,-18,-17,-16,-15,-14,-14,-13,-12,-11,-10,-7,-5,-2,0,3,5,6,8,10,13,18,28,34,38,40,41,40,37,32,23,9,-5,-18,-26,-31,-37,-44,-50,-56,-59,-60,-58,-53,-40,-12,32,96,177,276,386,494,576,603,552,428,259,89,-38,-88,-104,-90,-78,-71,-65,-60,-55,-50,-45,-39,-34,-31,-31,-32,-35,-37,-40,-41,-37,-30,-26,-24,-22,-20,-18,-16,-15,-14,-14,-14,-15,-16,-18,-21,-24,-27,-30,-35,-42,-48,-50,-51,-52,-53,-55,-54,-50,-44,-40,-37,-33,-30,-27,-24,-21,-18,-13,-8,-1,5,13,23,33,43,54,61,69,76,86,92,98,102,103,102,98,93,87,79,72,63,52,41,28,16,7,0,-10,-23,-35,-49,-59,-65,-69,-71,-73,-74,-75,-75,-76,-76,-77,-77,-77,-77,-77,-76,-74,-72,-70,-68,-65,-64,-62,-61,-60,-59,-58,-57,-55,-54,-52,-50,-49,-47,-45,-43,-41,-40,-39,-37,-36,-34,-32,-31,-29,-27,-26,-24,-23,-21,-20,-19,-18,-17,-16,-15,-14,-13,-12,-11,-10,-9,-8,-8,-8,-9,-9,-10,-10,-11,-12,-13,-15,-17,-18,-17,-16,-14,-13,-12,-11,-10,-8,-6,-4,-3,-1,0,0,2,3,4,5,6,8,10,12,14,16,17,17,17,17,17,17,16,16,16,16,16,16,17,16,15,14,13,11,10,9,8,7,6,5,6,7,9,12,15,18,22,25,29,33,37,40,43,45,47,49,51,52,53,55,57,58,60,61,62,63,65,67,71,78,82,85,88,90,87,82,74,61,50,42,35,29,24,17,10,4,-1,-5,-5,-3,0,12,49,105,184,282,395,508,600,643,615,512,354,180,33,-56,-71,-66,-30,-13,-7,-7,-11,-15,-19,-18,-9,-5,-3,-1,0,1,2,3,4,6,7,8,9,10,11,11,12,12,13,14,14,15,16,17,18,19,20,21,22,24,25,26,28,29,31,33,35,39,46,53,58,62,67,71,76,81,87,92,97,103,108,114,118,123,128,132,137,140,144,148,151,152,151,148,145,141,136,130,123,115,105,94,81,68,55,43,31,19,10,2,-4,-12,-23,-28,-32,-35,-38,-41,-43,-45,-46,-47,-48,-49,-50,-52,-52,-53,-54,-55,-55,-56,-56,-55,-55,-56,-56,-57,-57,-57,-57,-57,-57,-57,-56,-55,-54,-52,-50,-49,-47,-46,-44,-43,-42,-41,-41,-40,-39,-38,-37,-36,-35,-33,-32,-31,-29,-28,-28,-27,-26,-26,-25,-25,-24,-24,-24,-24,-24,-24,-23,-24,-24,-24,-25,-25,-25,-25,-25,-25,-25,-25,-24,-24,-24,-25,-25,-25,-25,-24,-24,-24,-24,-24,-24,-23,-23,-23,-24,-24,-25,-26,-26,-27,-28,-28,-29,-29,-30,-30,-30,-30,-31,-31,-31,-30,-29,-28,-27,-25,-23,-21,-19,-17,-16,-14,-13,-11,-9,-7,-5,-2,0,2,4,6,7,9,11,12,12,12,13,15,16,17,17,14,9,4,-1,-5,-11,-16,-21,-25,-28,-30,-32,-34,-37,-41,-43,-40,-32,-10,31,94,177,274,377,470,524,526,480,357,194,30,-93,-147,-152,-123,-78,-54,-48,-45,-42,-40,-37,-34,-31,-29,-27,-25,-24,-23,-22,-21,-20,-19,-18,-17,-16,-15,-14,-13,-12,-11,-9,-8,-7,-6,-5,-5,-4,-3,-2,-1,0,2,3,5,7,9,11,13,16,18,20,23,27,31,35,39,42,45,49,53,58,65,71,78,84,90,96,101,105,108,111,113,116,118,120,121,121,119,116,111,105,97,83,75,67,59,49,37,21,6,-3,-10,-16,-22,-27,-31,-34,-37,-39,-42,-45,-48,-50,-52,-54,-56,-57,-57,-56,-54,-51,-49,-47,-45,-42,-40,-38,-37,-36,-35,-35,-34,-34,-34,-33,-32,-32,-31,-32,-32,-31,-31,-31,-31,-31,-32,-32,-30,-27,-24,-22,-21,-20,-19,-18,-17,-16,-15,-14,-14,-14,-14,-14,-15,-16,-17,-18,-20,-22,-23,-24,-25,-26,-27,-29,-32,-33,-34,-33,-30,-28,-26,-25,-24,-23,-22,-21,-20,-20,-19,-19,-19,-19,-19,-19,-19,-20,-20,-20,-20,-19,-19,-18,-18,-18,-17,-17,-17,-17,-17,-16,-16,-15,-15,-14,-13,-13,-12,-12,-11,-11,-10,-10,-10,-9,-8,-7,-6,-5,-3,0,2,5,7,10,12,16,21,27,34,39,43,45,48,50,51,51,50,47,43,39,33,25,17,12,4,-3,-13,-20,-26,-31,-32,-31,-27,-19,4,54,127,219,326,432,521,567,548,457,313,145,-2,-95,-114,-111,-74,-51,-46,-42,-40,-38,-36,-34,-32,-30,-28,-26,-24,-22,-20,-18,-17,-15,-14,-12,-11,-10,-9,-7,-5,-3,-2,-3,-3,-4,-4,-5,-5,-6,-7,-8,-8,-9,-9,-8,-6,-4,-1,0,3,6,10,13,16,19,22,25,29,33,36,39,43,47,52,56,61,65,70,75,79,84,89,92,95,98,100,101,102,101,100,98,94,90,81,65,52,42,33,21,6,-10,-26,-42,-57,-68,-76,-82,-84,-86,-87,-88,-89,-89,-89,-89,-89,-89,-88,-87,-86,-84,-83,-83,-82,-82,-81,-81,-81,-80,-80,-80,-79,-79,-78,-78,-77,-76,-75,-74,-72,-71,-69,-66,-59,-55,-53,-52,-51,-51,-50,-49,-48,-47,-46,-45,-43,-41,-39,-37,-36,-35,-34,-32,-30,-28,-26,-24,-22,-20,-18,-16,-14,-13,-12,-12,-11,-10,-9,-9,-8,-7,-6,-4,-3,-1,0,0,1,1,2,2,3,3,4,6,9,12,14,13,11,8,6,5,3,1,0,-1,-2,-3,-4,-4,-3,-2,-1,0,2,4,6,7,9,10,12,14,16,18,19,20,22,23,25,26,27,28,29,30,32,35,37,41,45,50,57,65,72,78,83,87,89,88,85,81,75,67,56,49,44,41,37,34,31,28,25,20,17,18,22,29,53,98,167,257,364,473,565,603,598,531,400,239,88,-18,-48,-57,-63,-68,-73,-84,-94,-96,-98,-97,-90,-87,-84,-82,-81,-80,-80,-79,-79,-78,-77,-77,-77,-77,-77,-78,-78,-78,-79,-79,-80,-81,-81,-82,-83,-84,-85,-86,-87,-87,-89,-90,-91,-92,-91,-89,-85,-81,-76,-68,-60,-54,-50,-45,-40,-36,-29,-21,-12,-3,5,14,23,32,40,43,46,48,50,52,52,53,53,52,51,50,48,46,43,39,31,22,12,3,-4,-15,-30,-46,-64,-74,-79,-83,-86,-88,-91,-93,-95,-96,-98,-99,-100,-102,-103,-104,-105,-106,-106,-105,-104,-103,-102,-100,-98,-95,-93,-90,-87,-84,-81,-78,-75,-73,-71,-70,-69,-68,-66,-65,-64,-63,-61,-59,-58,-56,-54,-52,-50,-48,-46,-43,-38,-32,-28,-24,-21,-19,-18,-16,-14,-13,-13,-13,-13,-13,-13,-13,-13,-13,-12,-12,-11,-9,-8,-6,-5,-4,-3,-2,-1,0,0,0,1,2,4,5,6,8,9,11,12,14,15,16,16,17,17,17,17,17,17,18,18,18,18,19,20,22,24,26,27,29,31,34,36,38,39,40,41,43,45,47,49,52,54,56,59,61,63,65,66,68,72,76,80,84,87,90,93,96,98,101,104,107,110,113,115,118,121,124,127,129,128,127,125,121,117,108,93,81,72,64,57,52,48,48,52,59,83,120,171,242,334,443,554,647,692,669,572,416,237,80,-23,-58,-60,-36,-6,17,34,43,47,51,53,55,56,57,57,58,58,58,58,58,57,57,57,57,58,57,57,56,56,56,57,57,58,59,60,62,63,65,66,66,67,69,70,72,74,75,77,79,81,82,84,85,87,89,91,95,100,106,110,115,119,124,129,134,139,146,154,163,169,172,175,177,178,179,178,175,172,168,161,146,133,123,114,103,87,70,54,39,25,14,1,-10,-26,-37,-42,-46,-49,-52,-54,-56,-58,-60,-61,-63,-64,-64,-65,-65,-65,-66,-67,-67,-67,-67,-67,-68,-68,-68,-67,-67,-66,-65,-65,-65,-65,-64,-63,-63,-63,-62,-62,-62,-62,-61,-61,-60,-60,-61,-61,-61,-60,-60,-60,-60,-60,-60,-60,-60,-61,-61,-62,-63,-64,-65,-65,-66,-66,-67,-67,-68,-68,-68,-68,-71,-73,-73,-68,-62,-60,-58,-56,-55,-54,-53,-52,-51,-51,-50,-50,-50,-50,-50,-49,-49,-49,-49,-49,-49,-49,-49,-49,-49,-49,-49,-48,-48,-48,-47,-47,-47,-47,-47,-47,-48,-48,-49,-49,-49,-49,-50,-50,-51,-51,-51,-52,-54,-55,-56,-55,-50,-45,-40,-37,-33,-29,-26,-22,-18,-15,-12,-10,-8,-5,-4,-3,-3,-4,-5,-8,-11,-14,-18,-22,-29,-35,-40,-44,-47,-52,-55,-57,-56,-51,-44,-33,-12,24,78,152,243,344,441,511,518,487,369,209,44,-82,-141,-149,-132,-103,-89,-80,-73,-62,-55,-51,-48,-45,-42,-39,-36,-33,-29,-27,-24,-22,-21,-19,-18,-17,-15,-14,-12,-10,-9,-8,-7,-6,-5,-4,-3,-2,0,1,5,9,12,16,19,21,23,25,26,27,29,31,33,35,37,40,43,46,51,56,60,66,72,80,87,92,98,104,108,112,115,117,119,121,121,121,120,117,112,107,100,87,80,72,61,50,38,28,20,13,3,-7,-19,-32,-44,-53,-62,-65,-67,-68,-69,-70,-71,-72,-73,-73,-74,-75,-75,-76,-76,-76,-77,-77,-77,-77,-77,-76,-76,-75,-75,-75,-74,-74,-73,-73,-73,-72,-72,-71,-70,-69,-68,-66,-65,-63,-61,-60,-58,-56,-55,-53,-51,-50,-48,-45,-43,-40,-38,-36,-33,-30,-26,-19,-16,-15,-13,-11,-10,-11,-13,-13,-14,-14,-15,-16,-16,-17,-18,-19,-19,-20,-20,-19,-19,-19,-19,-18,-18,-18,-18,-18,-18,-19,-19,-19,-19,-18,-17,-16,-15,-14,-13,-12,-11,-9,-8,-7,-5,0,3,4,5,6,8,9,8,5,2,0,-1,-1,1,6,12,20,23,24,25,26,26,27,28,29,30,31,32,34,36,38,41,45,50,53,56,59,62,64,66,67,66,64,61,58,52,45,37,28,16,8,4,1,0,0,1,6,13,38,79,136,209,298,397,489,549,554,515,400,248,94,-23,-79,-87,-71,-39,-21,-16,-13,-9,-5,-2,1,4,7,9,11,14,16,18,20,22,23,25,26,27,28,29,31,32,33,34,35,36,37,38,39,40,41,42,44,45,46,48,49,50,51,53,54,55,56,57,59,61,63,66,69,72,74,77,81,88,97,104,110,115,121,127,133,138,142,145,147,148,150,152,153,152,149,145,139,133,124,116,107,97,86,73,61,49,37,26,16,4,-4,-10,-15,-19,-23,-24,-26,-27,-28,-29,-30,-31,-32,-32,-33,-33,-34,-34,-35,-36,-37,-38,-40,-41,-42,-43,-44,-45,-47,-47,-48,-49,-50,-50,-51,-52,-52,-52,-51,-50,-50,-49,-49,-48,-47,-47,-46,-45,-45,-45,-45,-44,-44,-43,-42,-41,-41,-41,-41,-40,-40,-40,-40,-40,-40,-40,-39,-39,-39,-39,-39,-39,-38,-37,-37,-36,-36,-36,-36,-36,-36,-37,-38,-38,-39,-39,-39,-40,-40,-40,-40,-39,-39,-39,-39,-39,-39,-39,-39,-39,-40,-40,-41,-41,-41,-41,-40,-40,-40,-40,-39,-38,-38,-38,-38,-37,-37,-37,-37,-37,-37,-36,-36,-35,-34,-34,-33,-32,-30,-27,-25,-21,-16,-10,-6,-2,1,5,8,12,15,19,22,25,27,30,32,34,35,36,35,34,32,30,26,23,18,8,-2,-9,-13,-17,-20,-22,-23,-22,-19,-15,-9,13,52,112,194,296,409,515,579,583,535,406,240,75,-49,-99,-116,-103,-82,-64,-51,-37,-20,-9,-5,-1,0,-1,-4,-7,-10,-12,-12,-9,-4,1,3,5,6,7,9,10,11,12,12,13,13,14,15,16,17,17,18,19,20,20,20,20,21,21,22,24,25,27,30,32,34,37,39,41,43,46,49,53,62,69,75,81,85,90,96,102,108,113,118,120,122,123,125,127,128,128,124,117,108,97,87,75,60,46,33,22,9,-3,-12,-19,-25,-30,-37,-44,-49,-54,-57,-60,-61,-63,-64,-64,-65,-65,-66,-67,-67,-67,-67,-67,-67,-67,-68,-68,-68,-68,-68,-68,-69,-69,-69,-68,-68,-67,-66,-66,-65,-65,-64,-63,-62,-62,-61,-60,-59,-58,-57,-57,-56,-56,-56,-56,-55,-55,-54,-54,-53,-52,-52,-52,-52,-52,-53,-54,-55,-56,-57,-58,-58,-59,-59,-59,-59,-59,-59,-60,-60,-60,-61,-61,-60,-58,-55,-53,-51,-49,-48,-46,-45,-44,-42,-41,-40,-39,-38,-37,-36,-35,-35,-34,-34,-34,-34,-33,-33,-33,-32,-31,-30,-29,-27,-26,-25,-24,-23,-22,-20,-19,-17,-15,-13,-10,-7,-4,-2,0,2,4,6,8,10,12,14,16,19,23,30,41,47,52,55,58,61,63,64,66,67,68,69,70,71,72,73,73,74,74,74,74,72,71,69,66,64,60,54,48,43,36,28,24,20,17,18,27,53,95,159,244,347,458,558,620,625,583,464,303,142,15,-60,-74,-71,-44,-23,-16,-12,-7,-4,0,3,7,11,16,18,19,21,22,23,24,25,25,26,26,26,25,24,23,21,20,18,17,15,14,13,12,11,9,8,6,6,6,8,10,12,15,17,19,22,24,27,30,32,34,37,42,50,58,65,71,77,81,85,88,91,95,99,103,108,116,120,123,126,129,130,131,130,125,119,111,100,92,82,69,56,41,27,17,9,1,-6,-17,-21,-24,-26,-28,-29,-30,-31,-32,-33,-35,-36,-37,-38,-39,-40,-41,-42,-42,-43,-43,-43,-44,-45,-45,-46,-46,-46,-47,-48,-48,-48,-48,-47,-47,-47,-46,-46,-45,-45,-44,-44,-43,-43,-42,-42,-41,-40,-39,-38,-37,-36,-35,-35,-34,-33,-33,-32,-32,-31,-31,-30,-29,-29,-28,-28,-27,-27,-26,-25,-25,-25,-24,-24,-24,-23,-23,-23,-23,-23,-23,-23,-23,-23,-24,-24,-24,-25,-25,-26,-26,-27,-27,-27,-28,-28,-28,-29,-29,-29,-29,-29,-29,-29,-30,-30,-30,-29,-29,-30,-30,-30,-29,-29,-29,-29,-29,-29,-29,-28,-27,-26,-26,-25,-24,-23,-22,-21,-20,-19,-18,-17,-15,-13,-10,-8,-6,-4,-1,1,4,7,9,11,14,17,20,22,23,23,22,20,18,16,12,7,-1,-11,-18,-23,-27,-30,-31,-33,-34,-36,-37,-38,-35,-28,-7,30,90,172,273,384,489,557,562,519,387,211,34,-100,-167,-177,-162,-120,-83,-65,-60,-58,-56,-54,-53,-52,-51,-51,-50,-50,-49,-49,-48,-47,-47,-46,-45,-44,-43,-43,-42,-42,-41,-40,-39,-38,-36,-34,-31,-28,-25,-23,-21,-19,-18,-16,-14,-12,-10,-8,-5,-1,1,5,9,14,17,20,23,26,30,35,40,46,55,68,82,97,112,126,136,142,147,150,153,156,159,161,163,163,162,160,156,152,142,129,118,106,93,78,62,51,45,38,31,21,14,9,6,2,0,-2,-5,-7,-9,-11,-13,-15,-16,-17,-18,-19,-20,-20,-20,-20,-20,-21,-21,-21,-21,-21,-21,-21,-21,-21,-20,-20,-19,-18,-18,-17,-17,-16,-16,-16,-16,-17,-17,-18,-18,-18,-18,-18,-18,-19,-19,-19,-18,-18,-18,-18,-18,-18,-18,-18,-18,-18,-18,-19,-18,-17,-16,-16,-16,-17,-19,-21,-22,-23,-24,-26,-28,-28,-28,-27,-26,-24,-23,-22,-20,-19,-17,-16,-15,-15,-15,-15,-16,-16,-17,-17,-18,-20,-21,-22,-24,-27,-28,-28,-26,-24,-23,-22,-21,-19,-18,-16,-15,-13,-11,-9,-8,-7,-6,-5,-4,-3,-2,-1,-1,0,1,2,3,4,4,5,5,6,6,7,8,9,11,13,15,19,28,35,39,42,45,46,44,40,35,27,14,2,-5,-13,-22,-30,-37,-42,-46,-48,-45,-36,-12,27,87,167,265,373,475,545,552,517,401,242,78,-50,-108,-127,-117,-88,-59,-44,-36,-31,-27,-24,-21,-19,-17,-15,-14,-12,-11,-9,-8,-6,-4,-2,-1,0,0,0,0,0,0,1,2,2,3,4,4,4,3,3,3,3,3,3,2,2,2,2,3,3,4,5,6,7,11,16,24,31,36,41,46,50,55,63,77,87,94,98,101,103,105,106,107,108,109,110,109,107,105,101,97,93,85,78,70,61,51,42,32,23,15,4,-9,-21,-30,-41,-49,-54,-58,-62,-65,-68,-70,-72,-73,-74,-74,-75,-75,-76,-76,-77,-77,-78,-78,-79,-79,-79,-79,-79,-79,-78,-77,-76,-75,-74,-73,-72,-71,-70,-70,-69,-68,-67,-66,-66,-65,-63,-62,-61,-59,-58,-56,-55,-53,-52,-50,-49,-49,-48,-47,-47,-46,-45,-45,-44,-43,-43,-41,-40,-40,-39,-39,-38,-37,-37,-36,-35,-35,-35,-35,-35,-35,-35,-35,-36,-36,-36,-37,-37,-37,-37,-37,-37,-37,-36,-36,-36,-35,-35,-35,-35,-35,-35,-35,-35,-35,-34,-34,-34,-33,-33,-33,-33,-34,-34,-33,-33,-33,-33,-33,-32,-31,-30,-28,-26,-24,-21,-15,-8,-1,4,10,14,15,14,12,10,8,6,5,8,13,18,22,26,30,34,35,35,32,29,25,22,18,14,9,3,-1,-6,-12,-17,-19,-18,-15,-11,1,34,82,151,239,344,455,550,586,578,500,358,193,47,-51,-80,-89,-77,-57,-39,-29,-21,-10,-5,-2,-1,0,1,3,4,5,7,8,10,11,12,13,14,15,15,16,16,18,19,21,23,25,27,30,31,33,35,36,37,39,40,41,43,44,45,47,48,50,52,53,54,55,57,59,61,65,75,83,90,96,103,110,117,124,131,137,144,150,155,160,163,167,169,170,169,165,159,152,141,132,124,115,108,100,88,75,62,50,41,33,22,9,0,-4,-9,-13,-17,-21,-25,-29,-33,-37,-38,-40,-41,-43,-44,-45,-46,-48,-49,-50,-50,-51,-51,-51,-51,-51,-50,-50,-49,-48,-47,-46,-45,-44,-43,-42,-41,-39,-38,-37,-36,-35,-35,-34,-33,-33,-33,-33,-33,-32,-32,-32,-31,-31,-31,-31,-30,-30,-30,-29,-29,-29,-29,-29,-29,-29,-29,-29,-29,-28,-28,-28,-28,-28,-29,-29,-30,-31,-33,-34,-35,-35,-36,-37,-38,-38,-38,-39,-40,-41,-43,-45,-46,-48,-48,-49,-49,-50,-49,-49,-48,-47,-46,-45,-45,-44,-44,-43,-43,-42,-42,-40,-39,-38,-37,-36,-35,-34,-33,-32,-32,-31,-30,-29,-28,-26,-24,-22,-20,-17,-14,-11,-8,-5,-3,0,2,6,10,12,14,15,16,18,20,19,10,1,-9,-16,-21,-25,-30,-36,-40,-43,-46,-48,-48,-45,-41,-34,-10,33,96,175,268,371,468,536,543,512,396,234,61,-76,-146,-157,-139,-98,-73,-66,-63,-57,-53,-47,-38,-26,-20,-18,-17,-16,-15,-15,-15,-15,-14,-14,-15,-15,-14,-14,-13,-13,-12,-11,-11,-10,-9,-8,-7,-6,-5,-3,-2,0,2,5,7,9,12,15,18,22,29,35,40,44,48,51,54,56,59,61,65,71,76,82,89,97,104,110,115,121,127,131,134,137,139,140,141,140,138,135,132,127,120,108,100,91,82,73,59,44,30,16,4,-10,-21,-27,-32,-35,-38,-39,-40,-41,-42,-43,-44,-45,-46,-47,-47,-48,-48,-48,-49,-49,-49,-49,-49,-49,-49,-49,-49,-49,-48,-48,-47,-46,-46,-45,-44,-43,-42,-42,-41,-41,-41,-40,-40,-40,-39,-39,-39,-38,-38,-37,-37,-37,-37,-37,-37,-37,-38,-38,-39,-39,-39,-39,-39,-39,-39,-40,-40,-40,-41,-41,-42,-43,-43,-44,-43,-43,-43,-43,-42,-41,-40,-39,-38,-37,-37,-37,-36,-35,-35,-34,-33,-32,-31,-30,-29,-28,-27,-26,-25,-25,-24,-23,-22,-22,-21,-20,-19,-17,-15,-13,-11,-10,-9,-8,-8,-7,-7,-6,-5,-4,-3,-2,0,2,4,6,7,8,10,12,13,15,17,19,21,22,24,25,26,28,30,34,38,40,42,43,45,47,48,45,40,34,26,16,8,2,-2,-8,-14,-19,-25,-29,-29,-27,-23,-11,21,75,154,257,373,485,571,604,564,451,284,108,-34,-109,-122,-112,-81,-60,-54,-51,-48,-45,-42,-39,-32,-23,-20,-18,-17,-16,-16,-15,-14,-13,-11,-10,-9,-8,-8,-8,-8,-8,-8,-7,-7,-6,-6,-5,-4,-4,-4,-4,-4,-3,-2,-1,0,1,4,9,14,20,26,32,39,45,49,54,59,64,69,73,77,80,83,87,91,96,100,106,110,114,117,119,121,123,124,126,126,126,124,121,118,114,108,97,88,77,64,53,40,29,20,10,2,-4,-10,-16,-22,-27,-31,-34,-37,-38,-38,-39,-39,-39,-40,-40,-40,-41,-41,-41,-42,-42,-42,-42,-42,-42,-42,-42,-41,-41,-41,-41,-42,-42,-42,-43,-44,-44,-45,-46,-46,-45,-45,-45,-45,-45,-45,-45,-44,-45,-45,-45,-45,-44,-43,-41,-39,-37,-36,-34,-33,-33,-32,-32,-31,-31,-30,-30,-30,-30,-29,-29,-29,-29,-29,-29,-29,-28,-28,-28,-28,-29,-29,-29,-29,-30,-30,-30,-31,-31,-30,-30,-29,-29,-29,-30,-31,-32,-34,-35,-35,-35,-34,-33,-31,-29,-29,-29,-30,-30,-30,-31,-31,-32,-33,-33,-32,-30,-27,-24,-21,-18,-14,-11,-8,-7,-6,-6,-5,-5,-5,-4,-4,-3,-3,-2,-2,-1,0,0,0,1,3,6,8,5,0,-6,-12,-18,-23,-28,-32,-36,-41,-47,-52,-59,-61,-60,-56,-45,-14,36,109,204,315,433,534,573,565,482,330,157,2,-103,-145,-149,-131,-104,-93,-88,-82,-76,-65,-60,-57,-55,-53,-52,-50,-49,-48,-47,-45,-43,-42,-40,-39,-38,-36,-35,-33,-31,-29,-28,-27,-25,-24,-22,-21,-20,-18,-17,-16,-15,-14,-13,-12,-11,-10,-9,-7,-6,-4,-2,0,1,6,11,16,21,27,36,45,53,60,66,71,76,80,84,89,94,99,102,106,108,109,108,107,104,100,95,87,78,69,60,51,39,24,13,4,-4,-14,-23,-35,-42,-45,-49,-52,-54,-56,-57,-57,-57,-57,-57,-56,-56,-55,-55,-54,-54,-54,-54,-52,-49,-47,-45,-45,-44,-43,-42,-41,-39,-38,-36,-34,-32,-29,-27,-26,-24,-23,-22,-21,-20,-19,-17,-15,-14,-12,-10,-9,-8,-7,-7,-6,-6,-6,-6,-6,-6,-5,-5,-5,-5,-4,-4,-4,-4,-3,-3,-3,-3,-4,-4,-4,-4,-4,-4,-4,-4,-3,-3,-4,-4,-4,-4,-4,-5,-5,-5,-5,-5,-4,-3,-2,-1,0,1,2,3,4,5,6,7,9,10,12,14,15,16,18,19,21,22,23,24,24,25,26,27,28,30,32,34,38,42,46,49,51,53,56,59,63,68,73,81,90,91,92,94,92,83,74,63,55,44,30,21,16,13,10,9,8,6,3,4,13,36,73,130,205,298,403,507,586,613,573,463,302,128,-16,-101,-123,-98,-56,-26,-17,-11,-7,-4,2,14,20,22,23,24,25,26,26,27,28,29,29,30,30,30,30,30,30,30,30,30,31,31,32,32,33,33,34,35,35,36,36,37,38,40,42,44,47,50,53,56,60,64,68,74,80,85,90,95,100,104,108,111,115,120,127,138,144,148,151,154,156,157,157,156,154,152,149,145,141,134,127,120,110,95,80,66,53,40,28,16,5,-1,-10,-18,-24,-30,-34,-36,-38,-39,-40,-41,-42,-42,-42,-42,-43,-44,-44,-45,-46,-46,-46,-46,-46,-47,-47,-47,-47,-47,-47,-48,-48,-49,-49,-49,-49,-49,-49,-49,-48,-47,-45,-44,-43,-43,-42,-40,-38,-37,-37,-40,-44,-47,-48,-49,-50,-52,-54,-56,-57,-58,-59,-60,-61,-61,-62,-62,-61,-61,-62,-62,-63,-63,-63,-63,-64,-64,-65,-65,-65,-65,-65,-65,-65,-65,-65,-65,-64,-64,-64,-64,-64,-64,-64,-64,-64,-65,-65,-65,-66,-66,-65,-65,-64,-63,-62,-62,-61,-60,-60,-59,-59,-58,-58,-58,-57,-56,-55,-54,-52,-51,-50,-48,-46,-44,-43,-42,-41,-39,-38,-35,-32,-24,-18,-13,-9,-4,-1,-1,-3,-8,-16,-30,-42,-51,-58,-63,-67,-71,-74,-77,-81,-85,-84,-78,-62,-31,17,88,178,280,383,470,510,504,437,299,131,-24,-128,-162,-164,-140,-108,-87,-75,-65,-52,-45,-42,-39,-37,-35,-33,-30,-28,-26,-24,-22,-20,-18,-17,-16,-14,-12,-10,-8,-6,-4,-2,0,1,3,4,7,12,17,21,25,28,30,32,34,37,39,42,44,46,49,52,55,58,61,64,66,69,73,79,88,96,104,111,120,128,135,139,141,143,144,145,146,147,147,145,142,138,134,130,124,117,113,108,98,84,68,53,40,28,19,12,3,-2,-6,-10,-15,-20,-25,-27,-28,-30,-31,-32,-33,-34,-35,-35,-36,-37,-38,-38,-38,-39,-39,-39,-39,-39,-39,-39,-39,-39,-40,-40,-40,-40,-40,-41,-41,-42,-43,-45,-46,-46,-45,-43,-40,-37,-34,-30,-27,-23,-20,-17,-15,-14,-12,-11,-11,-10,-9,-8,-8,-8,-8,-8,-9,-9,-9,-10,-10,-10,-11,-12,-12,-13,-13,-14,-14,-14,-14,-14,-14,-14,-14,-14,-14,-15,-15,-16,-19,-21,-20,-16,-14,-12,-10,-9,-10,-12,-13,-14,-14,-15,-17,-18,-19,-20,-20,-21,-20,-20,-18,-16,-14,-12,-10,-8,-6,-5,-3,-1,0,1,3,5,7,9,10,12,13,15,17,18,21,24,26,28,29,31,32,35,36,32,24,15,4,-1,-8,-20,-29,-34,-37,-40,-41,-40,-39,-36,-32,-18,13,64,134,224,331,444,538,584,560,464,315,146,0,-93,-127,-130,-113,-90,-76,-61,-46,-39,-36,-34,-33,-32,-30,-29,-28,-27,-25,-23,-22,-21,-20,-19,-18,-18,-17,-16,-15,-14,-12,-11,-10,-8,-7,-6,-5,-4,-4,-4,-5,-5,-5,-5,-5,-5,-4,-3,-2,0,0,3,5,9,14,22,31,40,48,55,60,64,67,71,75,79,84,90,96,102,105,108,110,112,113,114,113,112,110,107,103,96,81,70,61,53,43,29,14,-1,-12,-17,-21,-25,-30,-34,-38,-42,-46,-50,-53,-54,-55,-56,-56,-56,-57,-57,-57,-57,-58,-58,-58,-58,-58,-57,-56,-55,-52,-50,-48,-46,-44,-43,-41,-40,-38,-37,-36,-35,-35,-34,-33,-33,-32,-31,-30,-30,-29,-29,-29,-28,-27,-26,-26,-25,-25,-25,-24,-23,-23,-22,-22,-22,-21,-20,-19,-19,-18,-18,-18,-18,-19,-19,-20,-21,-22,-22,-22,-23,-23,-23,-23,-23,-22,-22,-22,-22,-22,-23,-23,-23,-23,-24,-24,-24,-24,-24,-23,-23,-23,-23,-22,-22,-21,-21,-21,-21,-21,-20,-20,-19,-18,-17,-16,-15,-13,-11,-9,-6,-5,-3,-2,0,1,2,4,5,7,9,12,15,19,22,24,27,30,34,37,40,42,44,46,48,51,53,54,52,47,41,33,21,11,4,0,-4,-8,-13,-17,-21,-26,-30,-29,-26,-19,1,48,118,208,316,434,545,611,613,557,414,233,61,-58,-105,-109,-83,-49,-34,-26,-19,-11,-5,0,2,3,2,1,1,0,0,-1,0,4,7,9,9,10,11,12,13,14,15,16,17,18,19,20,21,22,23,23,24,24,25,25,26,27,29,30,32,33,35,37,40,42,44,46,50,55,61,66,70,74,78,81,86,91,96,101,107,114,120,124,127,130,133,135,137,136,133,128,122,114,104,91,75,61,47,37,29,20,7,-7,-19,-27,-34,-41,-47,-54,-56,-57,-58,-59,-59,-60,-61,-61,-61,-61,-61,-62,-62,-61,-61,-61,-61,-62,-63,-63,-63,-63,-63,-63,-64,-64,-64,-64,-63,-63,-63,-62,-61,-61,-59,-58,-57,-56,-55,-54,-53,-52,-52,-51,-50,-49,-48,-47,-46,-45,-44,-43,-43,-42,-42,-42,-42,-42,-41,-41,-41,-40,-39,-38,-38,-37,-36,-36,-35,-35,-34,-33,-32,-31,-29,-28,-28,-27,-26,-26,-26,-25,-25,-25,-25,-25,-24,-24,-23,-22,-22,-21,-21,-21,-21,-21,-21,-22,-22,-21,-20,-18,-17,-17,-18,-19,-20,-21,-22,-24,-26,-24,-21,-19,-17,-15,-14,-13,-11,-9,-7,-4,-2,0,3,7,11,15,18,21,23,25,27,29,30,31,31,30,28,25,23,19,16,10,4,0,-5,-11,-19,-28,-33,-38,-42,-43,-42,-38,-31,-11,29,86,162,255,359,460,535,560,520,413,260,96,-41,-128,-155,-134,-92,-55,-39,-33,-30,-29,-27,-26,-25,-23,-21,-19,-17,-16,-14,-12,-10,-8,-6,-4,-3,-1,0,0,1,2,2,2,3,3,3,3,4,4,5,5,6,7,8,10,12,14,16,19,22,26,31,36,40,44,47,50,53,56,59,63,66,69,74,82,87,92,99,110,117,121,123,125,126,126,125,122,119,115,111,104,98,91,84,75,66,54,41,30,18,9,1,-5,-12,-18,-26,-34,-42,-50,-57,-63,-67,-70,-72,-73,-74,-75,-75,-76,-75,-75,-75,-73,-72,-70,-68,-66,-65,-63,-62,-60,-58,-56,-54,-54,-54,-54,-55,-56,-57,-58,-59,-62,-64,-64,-59,-53,-49,-46,-43,-40,-38,-35,-33,-31,-29,-28,-27,-25,-24,-22,-21,-20,-20,-21,-22,-24,-25,-27,-28,-30,-32,-34,-35,-34,-33,-30,-29,-28,-27,-26,-25,-24,-23,-23,-22,-22,-21,-20,-20,-19,-19,-18,-18,-17,-17,-17,-17,-17,-17,-17,-16,-16,-15,-14,-13,-11,-10,-8,-7,-6,-4,-3,-2,-2,-1,-1,0,0,1,2,4,5,7,9,10,11,11,12,13,14,15,17,19,21,24,27,30,32,35,37,39,41,44,47,51,53,53,51,49,45,40,27,16,9,3,-3,-8,-13,-17,-21,-25,-29,-33,-38,-40,-37,-31,-12,29,93,180,287,403,509,573,576,526,397,236,83,-28,-75,-91,-85,-76,-68,-59,-49,-40,-36,-33,-32,-31,-30,-29,-28,-26,-25,-24,-22,-22,-21,-21,-20,-19,-17,-16,-14,-13,-11,-10,-9,-8,-7,-6,-6,-5,-4,-3,-2,-1,0,1,2,3,4,5,6,7,9,11,15,24,33,40,46,51,55,59,63,68,73,80,87,93,99,105,112,118,122,124,125,127,128,129,129,128,126,122,118,111,101,92,84,75,66,57,48,39,30,20,11,0,-15,-28,-37,-42,-44,-46,-47,-47,-48,-48,-48,-48,-49,-50,-50,-51,-51,-52,-52,-53,-55,-56,-57,-59,-60,-61,-63,-65,-66,-67,-67,-66,-63,-61,-59,-58,-56,-55,-54,-53,-52,-51,-50,-49,-48,-48,-47,-46,-45,-44,-42,-41,-39,-38,-37,-36,-34,-33,-32,-31,-31,-30,-30,-29,-28,-27,-27,-26,-24,-23,-22,-21,-20,-19,-18,-17,-16,-14,-13,-11,-7,-3,0,1,2,2,3,3,4,5,5,4,4,4,4,4,4,3,3,3,3,3,3,4,4,4,5,5,6,6,7,7,8,9,10,12,13,14,16,17,19,20,24,28,31,33,35,37,38,39,41,42,43,45,46,47,49,50,52,53,55,57,59,62,64,65,64,62,59,55,46,31,20,13,6,0,-6,-11,-18,-25,-31,-36,-39,-42,-42,-39,-35,-28,-7,38,106,194,301,418,528,591,592,530,385,210,53,-53,-87,-99,-91,-82,-75,-68,-61,-56,-53,-50,-48,-46,-44,-42,-40,-39,-37,-36,-34,-34,-33,-33,-33,-32,-31,-30,-30,-29,-29,-28,-28,-28,-27,-27,-27,-26,-25,-24,-23,-23,-23,-21,-20,-18,-17,-16,-14,-11,-7,-3,0,1,3,5,8,12,16,22,29,35,41,48,53,58,66,74,79,82,84,86,87,88,88,88,88,88,87,86,83,80,76,68,51,36,25,14,0,-18,-34,-44,-52,-59,-64,-68,-71,-73,-75,-76,-77,-78,-78,-78,-78,-78,-79,-79,-80,-80,-81,-81,-81,-81,-81,-81,-81,-81,-81,-81,-81,-81,-81,-81,-82,-82,-81,-80,-79,-78,-77,-75,-74,-72,-70,-69,-68,-67,-65,-63,-60,-57,-54,-51,-49,-48,-46,-45,-43,-42,-42,-41,-40,-39,-38,-36,-35,-33,-32,-30,-27,-25,-22,-20,-17,-16,-15,-14,-13,-12,-11,-11,-11,-10,-10,-10,-9,-8,-8,-7,-6,-6,-5,-5,-5,-5,-6,-6,-7,-7,-7,-7,-7,-7,-6,-6,-5,-5,-4,-4,-4,-4,-4,-4,-4,-3,-3,-2,0,0,2,3,5,6,8,10,12,13,15,16,18,20,21,22,24,25,25,27,28,30,32,37,46,49,51,52,54,55,55,54,51,48,44,39,34,27,20,16,13,12,12,11,11,10,9,9
