-266,-316,-367,-407,-423,-423,-401,-367,-329,-305,-289,-288,-300,-334,-385,-447,-515,-579,-602,-614,-622,-609,-569,-510,-438,-366,-303,-249,-218,-186,-156,-136,-120,-102,-85,-71,-58,-45,-34,-23,-14,-6,1,5,9,12,15,17,19,19,19,17,14,10,6,2,-1,-5,-9,-13,-17,-21,-25,-28,-32,-34,-37,-38,-39,-40,-41,-42,-43,-44,-46,-49,-52,-55,-56,-53,-47,-39,-29,-18,-2,11,24,32,37,42,46,49,51,51,50,48,44,40,34,28,21,10,-1,-12,-23,-35,-49,-63,-76,-91,-109,-126,-142,-155,-167,-177,-182,-185,-188,-191,-193,-195,-197,-198,-199,-200,-201,-201,-200,-200,-198,-197,-195,-193,-191,-188,-186,-183,-180,-176,-173,-169,-165,-160,-151,-140,-132,-125,-118,-112,-106,-101,-96,-91,-85,-79,-73,-66,-60,-54,-47,-41,-36,-30,-25,-20,-15,-12,-8,-4,-1,2,6,9,13,17,21,25,29,33,37,41,46,50,55,59,64,68,73,78,82,87,92,97,102,107,111,115,119,123,126,130,133,135,137,139,141,143,144,146,147,148,149,150,150,150,150,150,150,150,150,149,149,148,147,146,145,144,142,141,140,139,138,137,136,136,136,135,135,135,134,134,134,135,136,137,138,140,143,146,149,151,154,157,167,196,222,239,244,250,255,238,185,116,36,-42,-113,-172,-192,-200,-205,-189,-140,-81,-20,35,81,110,132,147,154,154,154,154,153,153,152,152,151,150,148,145,142,138,135,133,131,129,128,127,126,126,125,125,125,125,126,126,126,126,127,127,127,126,126,126,127,127,128,128,130,131,133,134,136,138,139,142,144,147,151,154,159,167,177,186,191,196,199,202,205,207,209,211,212,213,214,215,214,212,208,204,198,192,185,176,158,142,128,113,98,83,68,56,46,37,32,27,23,21,19,17,16,14,12,11,10,9,9,9,9,9,10,10,11,12,14,16,18,21,24,27,30,33,36,39,42,44,46,48,50,52,53,55,57,58,60,61,62,63,64,65,65,66,67,67,68,68,69,70,70,70,70,70,70,70,70,70,70,71,71,71,71,72,72,71,71,71,71,71,71,72,72,72,72,72,72,71,71,72,72,72,72,72,73,73,73,73,73,72,71,71,69,68,67,65,63,62,60,58,56,54,52,51,49,48,46,45,44,43,42,42,41,41,41,41,41,41,41,41,41,42,42,42,43,44,45,47,49,52,55,59,63,67,71,85,115,141,159,167,174,173,154,100,24,-70,-173,-268,-326,-346,-328,-276,-188,-97,-22,27,47,65,71,74,77,80,81,83,85,86,87,87,88,88,88,87,86,84,83,81,80,79,79,79,79,79,79,79,79,79,79,79,79,79,78,78,77,77,76,75,74,73,72,71,71,70,69,69,68,67,67,67,67,67,68,69,71,73,75,77,80,82,84,86,88,89,90,92,94,95,96,95,93,89,83,76,69,59,43,29,16,1,-15,-32,-47,-59,-72,-84,-90,-93,-97,-99,-102,-104,-106,-108,-110,-111,-112,-113,-114,-114,-114,-114,-114,-113,-111,-110,-108,-105,-103,-100,-98,-95,-93,-90,-87,-85,-82,-80,-77,-74,-72,-69,-67,-64,-62,-59,-57,-55,-53,-51,-49,-47,-45,-44,-43,-41,-40,-39,-38,-36,-35,-34,-32,-31,-30,-28,-27,-25,-24,-22,-21,-19,-17,-15,-13,-11,-10,-8,-7,-5,-4,-2,-1,0,1,3,5,6,8,9,10,11,11,12,13,14,15,16,17,18,19,19,20,20,20,20,20,20,20,20,19,19,18,18,17,16,16,15,14,14,13,13,13,13,13,14,14,14,15,15,16,17,19,20,22,24,25,26,27,28,29,29,31,33,35,38,42,46,51,55,60,66,73,86,107,116,123,130,129,114,73,15,-60,-144,-225,-278,-295,-278,-227,-132,-30,56,102,115,124,129,132,131,126,119,111,103,94,84,75,67,61,57,55,53,51,50,49,49,49,48,48,48,48,48,48,48,47,47,46,45,44,43,42,41,39,37,34,32,29,26,24,22,20,18,16,15,14,13,13,13,13,14,15,16,18,19,21,22,24,25,26,27,28,28,28,27,26,25,24,22,20,17,14,11,7,0,-16,-29,-41,-54,-68,-80,-91,-100,-107,-110,-112,-115,-116,-118,-119,-120,-121,-121,-121,-122,-121,-121,-121,-120,-118,-117,-115,-113,-111,-108,-106,-104,-102,-101,-99,-97,-96,-94,-92,-90,-88,-86,-84,-82,-80,-79,-77,-75,-73,-72,-70,-68,-67,-65,-64,-63,-62,-61,-60,-59,-58,-57,-56,-55,-54,-53,-52,-51,-50,-49,-48,-47,-46,-45,-44,-43,-41,-40,-39,-38,-37,-36,-35,-34,-32,-31,-29,-27,-25,-22,-20,-17,-13,-9,-6,-2,0,2,4,6,9,11,13,15,17,18,20,21,22,23,24,25,26,26,26,26,26,26,25,25,25,24,24,25,25,25,26,26,26,26,26,26,25,25,24,24,23,23,23,23,22,22,22,22,21,21,21,21,21,21,21,22,22,23,24,24,25,26,27,28,29,29,30,30,31,32,32,34,35,36,38,41,44,46,51,66,82,103,124,134,141,140,124,81,9,-85,-194,-300,-364,-386,-364,-295,-182,-68,22,68,83,91,97,101,104,104,105,105,105,105,105,105,106,106,106,105,105,104,103,102,101,101,101,100,100,100,100,100,100,100,100,99,99,99,99,99,99,99,100,100,100,100,100,101,101,102,104,105,107,109,111,113,115,117,120,122,125,131,138,145,150,152,154,156,157,158,159,160,162,162,162,161,159,155,150,144,137,126,117,108,94,77,63,48,33,18,3,-11,-23,-32,-42,-49,-55,-59,-63,-66,-69,-70,-72,-73,-74,-76,-77,-78,-79,-79,-79,-79,-78,-76,-74,-72,-70,-68,-65,-63,-61,-60,-58,-57,-55,-53,-52,-51,-50,-50,-49,-49,-49,-49,-48,-48,-47,-47,-46,-46,-46,-46,-47,-47,-47,-47,-46,-46,-46,-46,-45,-45,-46,-46,-46,-46,-47,-47,-47,-47,-47,-47,-47,-47,-47,-48,-48,-49,-50,-50,-50,-51,-51,-51,-51,-51,-51,-51,-51,-52,-52,-52,-52,-52,-52,-51,-51,-51,-51,-51,-51,-51,-51,-51,-50,-50,-49,-48,-48,-47,-47,-47,-47,-47,-47,-47,-47,-47,-46,-46,-46,-46,-46,-46,-46,-46,-46,-47,-47,-46,-46,-46,-45,-45,-45,-45,-45,-45,-45,-45,-44,-43,-43,-41,-40,-40,-39,-39,-39,-39,-40,-40,-41,-41,-41,-41,-41,-41,-40,-40,-40,-40,-40,-39,-38,-37,-36,-34,-32,-30,-28,-27,-25,-23,-21,-19,-17,-16,-15,-14,-14,-13,-13,-12,-11,-10,-7,-3,6,17,33,53,76,96,111,119,112,94,47,-25,-120,-230,-337,-421,-448,-443,-386,-289,-183,-95,-35,0,17,34,51,58,59,61,62,63,64,64,65,65,65,64,64,63,62,62,61,60,60,60,59,59,59,60,60,60,61,61,61,60,59,59,58,57,56,56,56,56,56,57,58,59,60,61,62,64,66,67,70,76,83,89,94,100,107,115,124,129,135,139,142,144,145,146,146,146,147,148,148,148,146,142,135,127,116,106,92,78,65,52,39,26,12,0,-12,-25,-35,-43,-54,-58,-61,-63,-65,-67,-69,-70,-71,-72,-72,-72,-72,-71,-71,-70,-70,-69,-67,-66,-64,-63,-61,-59,-57,-56,-55,-54,-53,-53,-52,-51,-50,-49,-48,-47,-46,-46,-45,-45,-45,-45,-45,-44,-44,-44,-43,-43,-43,-43,-43,-43,-43,-44,-44,-44,-44,-43,-43,-43,-42,-42,-42,-42,-42,-42,-42,-42,-42,-42,-42,-42,-42,-42,-42,-42,-42,-42,-42,-42,-42,-42,-42,-41,-41,-40,-40,-39,-39,-39,-39,-38,-38,-38,-37,-37,-37,-36,-36,-36,-36,-37,-37,-37,-37,-37,-37,-37,-37,-37,-37,-37,-38,-38,-38,-39,-38,-38,-38,-38,-38,-37,-37,-38,-38,-38,-38,-38,-38,-38,-38,-38,-38,-38,-38,-39,-39,-39,-39,-40,-40,-39,-39,-39,-39,-40,-40,-40,-40,-40,-40,-40,-40,-39,-39,-38,-38,-38,-39,-39,-40,-41,-41,-42,-42,-42,-43,-43,-43,-43,-43,-43,-42,-41,-39,-38,-36,-34,-31,-29,-26,-24,-21,-19,-18,-17,-16,-16,-15,-15,-14,-13,-11,-9,-6,-1,4,15,31,52,75,103,114,120,123,108,68,5,-78,-179,-284,-374,-428,-434,-409,-333,-238,-149,-82,-39,-10,8,27,45,54,59,62,64,65,66,65,63,61,58,55,53,52,50,49,49,48,48,48,48,49,49,49,49,49,49,49,49,49,48,48,47,46,45,44,43,43,42,42,43,44,44,45,47,48,50,51,54,61,68,75,82,89,96,102,109,117,125,129,132,134,136,138,138,139,139,138,137,134,132,129,124,115,108,98,86,74,60,45,31,16,2,-10,-24,-35,-44,-54,-62,-68,-72,-74,-76,-77,-78,-79,-79,-80,-80,-80,-80,-80,-79,-78,-78,-77,-76,-75,-73,-72,-70,-68,-66,-64,-62,-60,-59,-58,-56,-55,-54,-53,-51,-50,-49,-48,-47,-46,-45,-45,-44,-44,-44,-43,-43,-43,-42,-42,-41,-41,-41,-41,-41,-41,-41,-41,-41,-41,-40,-40,-40,-40,-40,-40,-40,-40,-40,-40,-39,-39,-38,-37,-37,-36,-35,-35,-35,-35,-35,-34,-34,-34,-33,-33,-32,-32,-31,-31,-31,-30,-30,-29,-29,-28,-28,-27,-26,-26,-26,-26,-26,-27,-27,-27,-27,-27,-26,-26,-25,-24,-24,-23,-23,-22,-21,-21,-20,-18,-17,-16,-15,-14,-13,-13,-12,-12,-11,-10,-9,-8,-7,-6,-5,-4,-4,-3,-3,-3,-3,-2,-2,-2,-1,-1,0,0,0,0,0,0,-1,-1,0,0,0,0,0,0,0,0,-1,-2,-3,-4,-4,-6,-9,-11,-13,-15,-16,-17,-18,-19,-19,-18,-17,-16,-14,-12,-10,-8,-6,-5,-4,-3,-2,-1,0,0,1,2,3,4,5,6,8,11,19,34,51,67,93,119,130,136,140,126,87,25,-56,-154,-255,-343,-394,-400,-376,-305,-217,-133,-69,-25,5,29,46,54,55,57,59,61,63,64,65,65,65,64,63,62,61,60,59,58,58,57,57,56,56,55,55,54,54,54,54,54,54,54,55,55,55,56,57,58,59,60,62,63,65,67,68,70,74,79,82,86,89,92,96,100,104,109,114,120,126,133,137,140,143,145,147,149,150,151,150,150,148,147,145,142,138,131,117,104,91,76,62,48,35,21,8,-4,-18,-28,-37,-48,-53,-55,-57,-59,-61,-63,-64,-65,-66,-66,-66,-66,-66,-65,-65,-65,-65,-64,-63,-62,-61,-60,-59,-57,-55,-54,-52,-51,-49,-46,-43,-39,-36,-33,-31,-28,-26,-25,-25,-25,-25,-25,-25,-25,-25,-25,-25,-25,-25,-26,-26,-27,-27,-27,-27,-27,-27,-26,-26,-26,-25,-25,-25,-25,-25,-24,-24,-23,-22,-22,-21,-20,-19,-19,-18,-18,-18,-18,-18,-18,-17,-17,-17,-16,-16,-16,-16,-16,-16,-15,-15,-15,-14,-14,-14,-13,-13,-12,-12,-12,-12,-12,-11,-11,-11,-9,-8,-6,-3,-1,0,0,0,0,0,0,1,1,2,2,2,2,2,1,0,0,0,-1,-2,-2,-3,-3,-3,-3,-3,-4,-4,-5,-5,-6,-6,-7,-7,-8,-8,-9,-9,-10,-10,-11,-12,-12,-13,-14,-15,-16,-17,-18,-19,-20,-21,-22,-24,-25,-25,-26,-26,-25,-24,-22,-20,-19,-17,-16,-15,-14,-13,-12,-11,-10,-9,-8,-8,-8,-7,-7,-7,-6,-5,-3,-1,3,11,28,46,65,82,92,92,82,55,1,-73,-164,-260,-345,-396,-401,-371,-291,-189,-89,-6,47,66,74,78,78,74,68,63,58,54,48,43,38,35,33,31,30,29,27,26,24,23,23,22,22,22,22,22,22,22,22,22,22,22,21,20,19,17,14,11,8,7,5,3,2,1,0,0,0,-1,0,0,2,5,9,13,17,23,30,36,41,46,51,55,57,58,58,58,58,59,60,60,59,54,49,41,31,22,12,2,-6,-18,-32,-46,-59,-73,-87,-100,-114,-126,-135,-143,-148,-150,-152,-154,-155,-156,-157,-157,-157,-157,-156,-155,-153,-152,-150,-148,-146,-144,-142,-140,-137,-134,-131,-128,-126,-124,-122,-120,-118,-116,-114,-112,-109,-107,-104,-101,-98,-94,-90,-87,-83,-79,-76,-75,-73,-72,-71,-70,-69,-69,-68,-67,-67,-66,-65,-65,-64,-63,-62,-62,-61,-60,-60,-59,-58,-57,-57,-56,-55,-54,-52,-51,-50,-49,-47,-45,-43,-41,-38,-36,-34,-32,-29,-27,-25,-23,-21,-20,-18,-18,-17,-16,-15,-14,-13,-12,-12,-11,-11,-10,-8,-7,-6,-4,-3,-1,0,1,3,5,7,9,11,13,15,18,20,23,26,29,30,32,33,35,36,37,38,39,39,40,41,41,41,42,42,42,42,43,43,44,45,45,46,46,47,47,48,48,49,49,50,50,50,49,49,48,47,46,45,44,44,43,43,44,44,44,46,47,49,50,52,53,54,55,56,56,56,57,57,58,58,58,58,58,59,60,61,63,64,66,71,77,90,109,133,160,172,179,183,170,129,64,-23,-128,-237,-328,-371,-372,-328,-237,-134,-41,24,61,80,91,98,104,106,107,108,110,111,112,112,112,112,112,111,110,110,109,109,108,107,106,106,105,104,104,103,102,102,101,101,101,101,101,101,101,102,103,104,104,105,106,107,108,109,111,112,113,115,116,117,119,125,131,136,141,145,149,153,157,162,166,170,173,176,179,181,183,183,183,182,181,179,176,173,169,160,151,139,125,111,96,81,65,48,33,19,5,-5,-14,-24,-32,-38,-42,-45,-47,-48,-48,-49,-50,-51,-52,-52,-53,-53,-54,-54,-54,-54,-54,-55,-55,-55,-55,-55,-54,-54,-53,-52,-51,-51,-50,-49,-48,-47,-46,-46,-45,-44,-44,-43,-42,-42,-41,-40,-40,-40,-39,-39,-39,-39,-39,-38,-38,-38,-38,-38,-38,-38,-38,-39,-39,-39,-39,-39,-39,-39,-39,-38,-38,-38,-38,-38,-37,-36,-36,-35,-34,-34,-34,-35,-35,-36,-37,-37,-38,-38,-39,-39,-39,-39,-39,-39,-39,-39,-39,-40,-40,-40,-40,-40,-40,-40,-40,-40,-40,-40,-40,-41,-41,-41,-41,-41,-42,-42,-42,-42,-42,-43,-43,-43,-43,-43,-43,-42,-42,-41,-41,-40,-39,-39,-39,-38,-37,-37,-36,-35,-34,-33,-32,-31,-30,-30,-29,-28,-28,-28,-27,-27,-27,-27,-27,-27,-26,-25,-24,-23,-22,-21,-21,-21,-20,-20,-20,-21,-21,-21,-22,-22,-22,-23,-23,-23,-22,-22,-21,-20,-18,-17,-16,-15,-14,-13,-12,-10,-9,-8,-6,-5,-4,-3,-1,0,2,4,6,7,8,10,14,23,38,59,85,115,130,142,149,138,104,41,-43,-144,-253,-350,-415,-427,-414,-344,-250,-157,-84,-37,-7,9,25,42,57,67,68,69,69,69,64,56,54,52,50,48,47,45,45,44,43,43,43,43,43,43,43,44,43,43,43,43,43,42,41,40,39,38,37,36,36,35,35,35,35,37,39,40,43,45,47,49,53,63,71,80,88,97,105,111,117,124,130,136,141,144,146,148,150,151,152,153,152,150,146,142,135,125,117,106,92,78,64,49,33,18,3,-9,-23,-33,-40,-50,-56,-62,-66,-68,-70,-71,-72,-73,-73,-74,-75,-75,-75,-75,-75,-75,-74,-74,-73,-72,-71,-69,-67,-64,-62,-59,-57,-55,-53,-51,-49,-47,-46,-44,-43,-42,-40,-39,-38,-38,-37,-37,-37,-36,-36,-37,-37,-37,-37,-37,-37,-38,-38,-38,-38,-38,-38,-39,-39,-39,-39,-40,-40,-40,-40,-40,-40,-40,-40,-40,-39,-39,-39,-39,-38,-38,-38,-37,-37,-37,-37,-37,-37,-37,-36,-36,-36,-36,-36,-36,-35,-35,-35,-35,-36,-36,-36,-36,-36,-36,-36,-36,-36,-36,-36,-36,-36,-36,-36,-36,-36,-36,-35,-35,-34,-34,-33,-33,-32,-32,-32,-32,-31,-31,-31,-30,-30,-29,-29,-28,-28,-27,-26,-25,-24,-23,-22,-20,-19,-18,-17,-16,-15,-14,-14,-13,-13,-12,-12,-12,-12,-11,-11,-11,-11,-10,-10,-9,-8,-7,-6,-5,-5,-4,-5,-6,-7,-8,-9,-11,-12,-14,-15,-16,-17,-17,-17,-17,-17,-16,-16,-14,-11,-8,-5,-3,-1,0,2,3,5,6,7,8,9,9,9,10,10,12,17,28,46,68,94,121,134,142,146,133,91,25,-60,-161,-266,-358,-417,-427,-411,-344,-257,-172,-107,-61,-30,-6,15,37,60,65,66,67,67,67,67,68,68,67,66,65,64,63,63,62,62,61,61,60,60,59,58,58,57,57,57,57,57,57,58,58,58,59,59,59,60,60,61,63,64,65,66,68,70,71,74,79,85,91,96,102,108,114,119,125,130,137,143,147,151,154,156,158,160,161,161,160,159,158,155,153,149,142,129,117,104,90,75,60,46,31,17,5,-7,-18,-27,-36,-44,-51,-56,-60,-62,-63,-64,-65,-67,-68,-68,-69,-69,-68,-68,-67,-67,-66,-65,-64,-62,-61,-59,-58,-56,-54,-53,-51,-50,-48,-48,-47,-47,-47,-47,-46,-47,-47,-47,-47,-46,-46,-46,-45,-45,-44,-43,-43,-42,-41,-40,-40,-39,-39,-39,-39,-40,-40,-41,-43,-44,-45,-46,-48,-49,-49,-50,-51,-51,-52,-52,-52,-51,-50,-49,-49,-48,-47,-47,-47,-47,-46,-46,-46,-46,-46,-46,-45,-45,-45,-45,-45,-44,-44,-44,-44,-44,-43,-43,-43,-42,-41,-40,-40,-39,-38,-37,-36,-35,-34,-32,-31,-29,-28,-26,-25,-23,-22,-21,-20,-19,-18,-18,-17,-16,-15,-15,-14,-14,-13,-12,-11,-11,-10,-9,-8,-7,-7,-6,-6,-5,-5,-4,-3,-2,-1,0,0,2,3,4,5,6,8,9,10,12,12,13,13,13,13,14,14,14,14,15,15,15,16,18,20,22,24,26,28,30,32,35,37,40,42,43,45,46,47,48,49,50,51,53,55,56,58,60,65,74,88,109,134,162,174,184,183,161,112,39,-52,-157,-259,-338,-365,-362,-308,-219,-119,-31,31,70,93,102,104,106,106,107,108,109,109,106,102,96,90,79,69,61,54,49,46,43,42,40,39,39,38,38,38,39,40,41,41,42,43,44,45,46,47,48,49,50,51,52,53,53,53,54,54,55,56,57,58,60,62,63,65,68,71,75,81,88,93,97,100,103,105,108,109,111,112,112,111,109,107,103,99,93,82,73,63,49,36,21,5,-10,-25,-40,-54,-68,-80,-89,-99,-106,-112,-116,-118,-120,-121,-122,-122,-122,-122,-122,-122,-122,-121,-121,-119,-117,-115,-113,-111,-109,-107,-106,-104,-103,-102,-100,-99,-98,-97,-96,-95,-94,-93,-92,-91,-90,-90,-89,-88,-86,-85,-84,-82,-81,-79,-77,-76,-74,-73,-72,-71,-69,-68,-67,-66,-66,-65,-65,-65,-65,-65,-65,-65,-64,-64,-64,-63,-63,-62,-62,-61,-61,-60,-59,-59,-58,-58,-57,-56,-55,-54,-53,-52,-51,-50,-49,-48,-47,-47,-46,-45,-44,-43,-43,-42,-42,-41,-41,-40,-39,-39,-38,-38,-38,-37,-36,-36,-35,-35,-34,-33,-32,-30,-29,-28,-27,-26,-25,-24,-23,-23,-22,-22,-21,-21,-20,-20,-19,-19,-18,-17,-17,-17,-17,-16,-16,-16,-16,-16,-16,-16,-16,-16,-17,-17,-17,-17,-16,-17,-17,-17,-18,-18,-18,-18,-18,-18,-18,-18,-18,-17,-16,-14,-13,-10,-9,-8,-7,-5,-3,-1,0,3,4,6,7,8,8,9,9,10,12,13,15,18,21,25,32,46,64,87,112,123,130,135,124,90,34,-38,-125,-215,-291,-327,-326,-283,-195,-88,11,84,112,122,128,129,127,122,117,111,105,100,95,92,89,88,87,86,85,84,84,84,85,85,86,86,87,88,89,90,92,93,94,94,95,96,97,98,99,100,100,101,102,103,104,106,107,109,110,112,113,115,116,118,121,125,129,134,138,142,147,151,156,161,166,170,174,177,178,180,181,182,184,186,186,185,181,175,169,159,152,142,129,117,103,89,74,60,46,33,19,8,1,-6,-13,-16,-18,-19,-20,-22,-23,-24,-25,-25,-25,-25,-25,-25,-25,-25,-24,-24,-23,-23,-23,-22,-22,-23,-23,-22,-22,-22,-22,-21,-21,-21,-20,-20,-19,-19,-18,-18,-17,-16,-16,-15,-15,-15,-15,-15,-15,-16,-17,-18,-19,-19,-20,-20,-21,-21,-21,-21,-21,-21,-21,-21,-21,-21,-21,-21,-22,-23,-24,-24,-25,-26,-26,-27,-27,-28,-29,-33,-36,-38,-38,-38,-39,-39,-40,-41,-41,-41,-41,-41,-41,-41,-41,-41,-41,-40,-40,-40,-40,-41,-41,-41,-42,-42,-43,-43,-43,-44,-45,-45,-46,-45,-45,-45,-44,-44,-44,-43,-43,-43,-42,-42,-42,-42,-42,-41,-41,-42,-41,-41,-40,-40,-40,-40,-39,-39,-39,-38,-38,-37,-37,-36,-35,-35,-35,-35,-34,-34,-33,-33,-33,-33,-33,-33,-33,-33,-30,-28,-26,-25,-24,-24,-25,-25,-25,-26,-26,-26,-27,-27,-27,-27,-27,-26,-26,-24,-23,-21,-19,-17,-16,-14,-13,-12,-10,-9,-7,-5,-4,-2,-1,0,0,0,1,1,1,2,3,4,10,24,41,59,87,113,122,127,123,91,31,-52,-156,-270,-374,-443,-454,-435,-356,-251,-149,-69,-23,0,15,25,39,43,45,47,50,52,54,54,54,54,54,53,52,51,51,50,50,50,49,50,50,51,51,51,52,53,53,52,52,51,51,50,49,49,48,48,48,48,48,49,49,50,51,53,54,56,59,63,67,71,76,82,88,94,101,107,113,120,127,131,134,137,139,141,143,144,145,145,144,143,141,138,135,132,126,114,104,92,77,63,48,32,17,3,-11,-23,-32,-43,-50,-55,-59,-62,-63,-64,-64,-64,-64,-64,-64,-64,-64,-63,-63,-62,-62,-61,-61,-60,-60,-59,-58,-57,-56,-55,-53,-52,-50,-49,-47,-46,-44,-43,-41,-40,-39,-38,-37,-37,-36,-35,-35,-34,-34,-34,-35,-35,-36,-36,-36,-36,-37,-37,-37,-37,-37,-36,-36,-36,-36,-36,-35,-35,-34,-34,-33,-33,-33,-33,-33,-33,-33,-33,-33,-34,-34,-34,-34,-34,-34,-34,-34,-34,-34,-34,-34,-33,-33,-32,-32,-32,-31,-31,-31,-31,-31,-31,-31,-31,-31,-31,-31,-31,-31,-31,-30,-31,-31,-31,-31,-30,-30,-30,-30,-30,-30,-30,-30,-29,-30,-30,-30,-29,-29,-29,-28,-28,-28,-27,-26,-25,-25,-24,-24,-23,-23,-22,-22,-22,-22,-22,-22,-22,-22,-22,-22,-23,-23,-23,-23,-23,-23,-23,-23,-22,-22,-22,-21,-20,-19,-18,-18,-17,-17,-17,-17,-17,-18,-18,-18,-19,-19,-19,-19,-18,-17,-15,-13,-11,-9,-8,-6,-5,-4,-2,-1,0,1,2,3,4,5,6,7,7,8,8,9,10,12,18,30,47,69,95,124,137,146,145,121,69,-7,-105,-218,-329,-419,-458,-459,-413,-326,-227,-139,-76,-38,-12,4,23,40,49,55,59,62,62,59,54,50,48,46,44,42,40,39,38,38,37,37,37,37,37,38,38,39,39,39,39,40,40,40,41,41,42,43,44,45,46,47,49,50,51,53,54,58,62,66,69,72,77,84,92,99,104,111,118,124,130,135,141,146,149,152,154,157,159,160,161,160,159,156,154,150,146,139,127,117,104,88,72,56,41,27,13,0,-12,-20,-29,-37,-44,-50,-54,-57,-58,-60,-60,-62,-62,-63,-64,-64,-64,-64,-64,-64,-64,-63,-62,-61,-60,-59,-58,-56,-54,-52,-50,-48,-47,-45,-42,-39,-36,-33,-31,-29,-28,-27,-26,-26,-25,-24,-23,-23,-22,-22,-22,-22,-23,-23,-24,-25,-26,-27,-28,-30,-31,-32,-33,-34,-34,-34,-34,-34,-34,-33,-32,-31,-31,-30,-30,-29,-29,-29,-29,-29,-29,-29,-30,-30,-31,-32,-33,-34,-35,-35,-36,-36,-37,-37,-38,-38,-38,-39,-39,-39,-39,-39,-39,-40,-40,-39,-39,-39,-39,-39,-39,-39,-39,-39,-39,-39,-39,-39,-39,-38,-38,-38,-38,-38,-37,-37,-37,-36,-36,-35,-35,-34,-34,-34,-34,-34,-34,-34,-34,-34,-33,-33,-33,-32,-31,-31,-30,-29,-29,-28,-27,-26,-26,-25,-24,-24,-23,-23,-23,-23,-23,-23,-22,-22,-22,-21,-21,-20,-19,-18,-17,-16,-14,-13,-12,-11,-12,-13,-15,-17,-19,-21,-22,-24,-25,-26,-26,-26,-24,-22,-18,-15,-12,-9,-7,-6,-4,-3,-2,0,0,1,3,4,5,5,5,5,5,6,8,13,26,40,55,79,105,132,142,148,144,112,54,-26,-126,-235,-338,-414,-447,-429,-368,-280,-188,-111,-57,-23,2,20,40,59,67,69,72,74,75,76,77,77,77,76,75,75,74,74,73,73,72,71,71,71,71,71,71,72,72,72,71,71,72,72,72,73,73,74,75,75,76,77,78,79,80,81,83,85,90,96,100,105,110,115,121,127,133,138,143,148,153,158,162,167,169,171,173,175,177,178,179,179,177,173,168,161,152,144,133,120,107,93,79,64,50,36,23,9,-2,-11,-20,-27,-34,-40,-46,-49,-52,-53,-55,-56,-57,-58,-59,-59,-60,-59,-58,-58,-57,-56,-55,-54,-53,-52,-51,-50,-49,-48,-47,-45,-44,-43,-42,-41,-40,-39,-39,-38,-38,-38,-39,-39,-39,-39,-40,-40,-40,-40,-41,-41,-42,-42,-42,-42,-41,-41,-41,-41,-42,-42,-43,-43,-44,-44,-45,-45,-46,-46,-47,-48,-48,-48,-49,-49,-49,-49,-50,-50,-50,-49,-49,-49,-48,-48,-47,-47,-47,-47,-47,-47,-46,-46,-46,-46,-46,-46,-47,-47,-47,-47,-47,-48,-48,-48,-48,-49,-49,-49,-49,-49,-49,-49,-48,-48,-47,-47,-46,-45,-44,-43,-42,-41,-41,-40,-40,-39,-38,-36,-35,-34,-33,-32,-31,-30,-29,-28,-28,-27,-27,-26,-26,-25,-25,-24,-24,-24,-24,-23,-23,-22,-22,-21,-21,-20,-20,-19,-19,-18,-18,-18,-18,-17,-17,-16,-15,-14,-14,-12,-12,-11,-11,-11,-12,-12,-12,-13,-13,-13,-13,-13,-12,-12,-11,-10,-8,-6,-3,0,2,5,6,8,10,12,13,15,16,18,19,20,22,24,24,25,25,26,27,32,44,59,75,100,126,149,158,158,149,125,68,-10,-106,-211,-307,-376,-401,-377,-310,-216,-116,-32,24,58,76,91,99,98,97,97,98,99,99,97,93,90,87,85,82,81,79,79,78,77,77,77,78,80,81,84,86,89,91,93,95,96,98,99,100,100,101,101,102,101,101,101,101,101,101,101,101,101,102,102,103,105,106,108,110,113,118,124,131,138,142,146,149,152,155,158,159,160,160,160,158,156,154,151,148,143,133,124,111,96,80,64,47,31,16,1,-14,-28,-41,-53,-63,-70,-78,-83,-87,-90,-93,-95,-97,-99,-101,-102,-103,-105,-106,-106,-107,-108,-108,-108,-108,-107,-106,-105,-103,-101,-100,-97,-96,-94,-92,-91,-90,-89,-87,-86,-85,-83,-82,-80,-78,-75,-73,-71,-70,-69,-68,-67,-66,-65,-65,-66,-65,-65,-65,-64,-64,-64,-64,-63,-63,-62,-62,-62,-62,-61,-61,-61,-61,-60,-60,-60,-59,-59,-59,-59,-58,-58,-57,-57,-57,-57,-57,-57,-57,-57,-57,-58,-58,-58,-58,-58,-58,-58,-58,-58,-58,-58,-58,-57,-57,-56,-56,-57,-57,-57,-57,-57,-57,-57,-57,-57,-56,-55,-54,-53,-52,-51,-50,-49,-48,-47,-47,-46,-46,-46,-45,-45,-45,-45,-44,-44,-45,-44,-45,-45,-45,-44,-44,-43,-42,-42,-41,-40,-40,-39,-39,-38,-38,-37,-36,-35,-35,-35,-35,-35,-35,-35,-35,-36,-37,-38,-39,-40,-41,-41,-41,-40,-40,-39,-38,-36,-35,-32,-30,-27,-23,-20,-17,-15,-13,-11,-8,-6,-4,-2,0,1,3,5,6,8,8,8,7,7,8,12,23,37,54,74,90,100,106,98,71,18,-56,-144,-238,-322,-377,-385,-363,-284,-179,-70,22,85,108,116,118,114,108,99,86,75,66,57,52,50,48,46,44,42,40,39,38,37,37,38,39,41,43,45,49,52,54,57,60,62,63,65,66,66,66,66,67,67,67,66,66,66,67,67,68,70,71,72,73,75,78,82,86,90,94,97,102,108,114,121,129,139,146,151,154,156,158,160,161,160,159,157,154,151,146,141,131,122,111,97,83,70,54,41,29,15,4,-4,-14,-18,-20,-23,-25,-26,-28,-29,-28,-27,-27,-26,-25,-24,-22,-21,-20,-19,-18,-18,-17,-16,-16,-16,-16,-16,-16,-16,-15,-15,-15,-14,-13,-11,-10,-8,-7,-6,-5,-5,-4,-3,-2,-2,-2,-1,-1,-1,0,0,0,0,0,0,0,0,0,0,0,0,0,0,0,0,-1,-2,-3,-4,-4,-4,-5,-6,-6,-7,-8,-8,-8,-8,-8,-9,-8,-7,-7,-6,-6,-5,-4,-4,-4,-4,-4,-5,-5,-5,-6,-7,-8,-9,-10,-12,-13,-14,-16,-17,-18,-18,-18,-19,-19,-19,-19,-19,-19,-19,-19,-19,-19,-19,-19,-19,-19,-19,-19,-19,-18,-18,-18,-18,-17,-17,-16,-16,-15,-15,-15,-16,-16,-17,-18,-18,-19,-19,-19,-19,-19,-19,-19,-19,-19,-18,-19,-19,-19,-19,-19,-19,-19,-19,-19,-19,-19,-18,-18,-18,-18,-17,-17,-16,-16,-16,-15,-15,-15,-15,-15,-16,-17,-18,-18,-18,-18,-18,-18,-17,-17,-16,-14,-12,-10,-7,-5,-4,-3,-1,0,0,1,2,3,3,4,5,5,6,6,6,6,6,6,7,9,11,19,35,57,82,109,121,129,128,102,49,-31,-135,-250,-356,-435,-465,-439,-365,-260,-151,-64,-8,15,24,32,41,49,52,53,54,54,54,53,53,52,51,50,48,48,48,47,47,47,46,46,47,47,47,48,49,50,51,52,52,53,53,53,52,52,51,50,49,49,48,48,48,49,50,51,53,55,57,59,62,66,76,84,90,96,102,108,115,121,127,132,137,141,144,147,150,152,153,153,152,151,148,145,141,136,128,119,107,93,79,65,49,34,19,4,-8,-21,-31,-38,-50,-55,-57,-60,-62,-64,-66,-68,-69,-69,-70,-70,-70,-70,-70,-70,-69,-69,-68,-67,-66,-65,-63,-61,-60,-58,-57,-55,-54,-52,-51,-49,-48,-46,-45,-43,-42,-41,-40,-40,-39,-38,-38,-37,-37,-36,-36,-35,-35,-35,-35,-34,-35,-35,-35,-35,-35,-35,-35,-34,-33,-33,-32,-32,-31,-31,-30,-30,-30,-29,-29,-29,-29,-29,-29,-29,-30,-30,-31,-32,-32,-33,-34,-34,-35,-35,-35,-36,-36,-36,-35,-35,-34,-33,-32,-32,-31,-31,-31,-31,-31,-31,-31,-32,-33,-33,-33,-33,-34,-34,-35,-36,-36,-36,-36,-36,-36,-36,-35,-35,-34,-34,-33,-32,-32,-31,-30,-30,-29,-28,-28,-27,-26,-26,-25,-25,-24,-24,-24,-24,-23,-23,-22,-20,-19,-19,-19,-19,-19,-19,-19,-19,-20,-20,-20,-20,-19,-18,-18,-17,-16,-16,-15,-14,-14,-13,-12,-12,-11,-10,-10,-9,-9,-9,-10,-12,-13,-15,-15,-16,-18,-19,-19,-20,-19,-19,-17,-16,-14,-12,-10,-8,-7,-5,-4,-2,-1,0,0,1,1,2,2,3,3,3,3,3,3,4,6,13,23,40,58,87,115,128,137,137,112,60,-19,-120,-233,-341,-426,-458,-455,-403,-313,-212,-126,-64,-29,-11,3,20,39,51,56,59,60,59,55,50,48,46,44,42,42,42,42,42,42,42,42,42,42,42,42,42,43,43,44,44,44,44,45,45,45,45,45,45,46,47,48,49,50,52,53,55,56,59,64,70,75,80,86,92,98,104,110,116,122,128,134,141,147,152,155,158,160,161,162,163,162,160,157,154,150,145,135,126,114,99,84,68,52,37,21,5,-6,-15,-25,-34,-42,-49,-55,-58,-60,-62,-63,-65,-66,-67,-68,-68,-68,-68,-68,-68,-67,-66,-65,-65,-63,-62,-61,-59,-58,-56,-55,-53,-52,-50,-49,-47,-46,-44,-42,-39,-37,-34,-32,-31,-30,-30,-29,-29,-29,-30,-30,-30,-30,-30,-31,-32,-33,-34,-34,-35,-36,-36,-37,-37,-38,-38,-38,-38,-37,-37,-36,-35,-35,-34,-34,-34,-33,-33,-33,-32,-32,-33,-33,-34,-35,-36,-37,-37,-38,-38,-39,-39,-39,-40,-40,-40,-40,-40,-41,-41,-41,-42,-42,-42,-42,-42,-42,-42,-42,-42,-43,-43,-42,-42,-42,-41,-41,-41,-42,-42,-42,-42,-43,-43,-43,-42,-41,-40,-39,-38,-37,-36,-35,-35,-34,-33,-32,-31,-31,-30,-29,-29,-28,-28,-27,-27,-27,-27,-26,-25,-25,-24,-24,-23,-23,-22,-22,-21,-21,-20,-20,-20,-19,-19,-18,-18,-18,-17,-16,-15,-15,-14,-13,-13,-13,-13,-14,-14,-14,-14,-14,-14,-15,-15,-15,-15,-14,-12,-11,-9,-8,-6,-5,-4,-2,-1,0,0,2,3,4,5,7,8,9,10,10,10,10,11,13,16,25,41,62,86,112,138,146,148,141,104,40,-44,-145,-253,-350,-415,-427,-414,-346,-256,-166,-94,-47,-15,2,20,38,54,64,68,69,70,71,70,70,70,70,69,68,68,67,67,66,66,65,65,65,65,65,65,66,66,67,67,67,67,67,67,67,66,66,66,66,65,65,65,65,66,67,68,69,71,73,75,77,82,89,93,99,106,114,123,130,136,142,150,156,162,167,169,170,171,171,172,173,174,173,170,166,160,152,140,132,121,107,93,78,63,48,34,20,7,-5,-15,-23,-33,-40,-44,-48,-51,-52,-54,-55,-56,-57,-58,-59,-60,-60,-60,-60,-60,-60,-60,-59,-58,-57,-56,-55,-54,-53,-52,-51,-49,-48,-47,-46,-44,-44,-43,-42,-41,-40,-39,-38,-38,-37,-37,-37,-36,-36,-36,-35,-35,-35,-34,-34,-34,-34,-34,-35,-35,-36,-36,-37,-37,-37,-38,-38,-39,-39,-39,-40,-40,-40,-40,-40,-40,-40,-39,-39,-39,-39,-38,-38,-38,-39,-40,-40,-40,-40,-41,-42,-42,-43,-43,-43,-43,-44,-44,-44,-43,-43,-43,-42,-43,-43,-43,-43,-43,-44,-44,-44,-44,-43,-43,-43,-42,-42,-42,-41,-41,-40,-40,-39,-38,-37,-36,-35,-34,-34,-33,-33,-33,-32,-32,-31,-30,-29,-28,-28,-26,-25,-24,-23,-22,-21,-21,-20,-19,-18,-17,-17,-16,-15,-15,-14,-14,-14,-14,-13,-13,-12,-12,-12,-12,-12,-11,-10,-9,-8,-7,-6,-5,-5,-4,-4,-4,-5,-5,-5,-6,-6,-7,-6,-5,-4,-2,0,2,4,6,8,10,11,13,14,16,18,19,20,21,22,23,24,25,25,25,24,25,26,30,41,55,70,96,123,145,154,154,144,116,57,-26,-126,-231,-324,-383,-392,-372,-301,-205,-107,-26,29,58,74,81,85,88,91,94,96,97,96,92,88,84,80,76,72,70,67,65,63,61,61,61,62,63,64,65,65,66,66,66,67,66,66,66,66,65,65,64,64,63,62,62,61,61,61,61,62,63,65,66,68,70,71,74,79,85,90,95,101,107,112,116,121,124,126,129,131,133,134,134,135,134,133,131,129,126,122,114,99,86,71,56,41,27,13,-1,-16,-30,-43,-54,-62,-70,-73,-75,-77,-78,-80,-81,-81,-82,-82,-82,-82,-81,-81,-80,-78,-77,-76,-75,-75,-74,-74,-74,-74,-74,-74,-74,-73,-73,-72,-71,-70,-69,-67,-66,-64,-63,-61,-59,-58,-56,-55,-54,-52,-51,-50,-49,-48,-47,-46,-45,-45,-46,-46,-46,-46,-46,-47,-47,-46,-46,-46,-46,-45,-45,-45,-45,-44,-44,-44,-44,-44,-44,-44,-44,-44,-45,-46,-46,-47,-47,-46,-46,-46,-46,-46,-46,-46,-46,-46,-46,-46,-47,-47,-47,-47,-47,-48,-48,-48,-48,-49,-49,-50,-50,-50,-50,-50,-50,-50,-50,-50,-50,-49,-49,-48,-48,-47,-46,-46,-45,-44,-42,-41,-41,-40,-39,-39,-38,-38,-37,-37,-36,-36,-35,-35,-35,-35,-35,-34,-34,-33,-33,-32,-32,-31,-31,-30,-30,-30,-30,-30,-30,-30,-30,-30,-29,-29,-29,-29,-30,-31,-33,-33,-34,-34,-35,-35,-35,-35,-35,-35,-34,-33,-31,-28,-26,-24,-22,-20,-17,-14,-12,-9,-7,-5,-4,-2,-1,0,0,2,3,5,6,8,9,11,16,25,42,59,77,93,103,103,97,79,35,-27,-106,-194,-280,-347,-366,-360,-302,-208,-103,-9,55,81,91,96,95,91,84,77,67,59,56,53,51,49,48,47,46,44,43,43,43,43,44,45,46,48,49,51,53,55,57,59,61,62,63,65,65,66,66,67,67,68,68,69,70,71,72,73,74,76,77,80,83,87,90,93,96,99,103,109,115,122,128,134,139,143,146,148,150,152,154,155,155,154,153,151,148,145,138,126,114,101,87,72,57,42,28,14,1,-10,-21,-29,-36,-39,-40,-42,-43,-44,-46,-46,-47,-47,-46,-45,-44,-44,-43,-42,-40,-40,-39,-38,-37,-37,-36,-36,-35,-34,-33,-32,-31,-30,-29,-29,-27,-25,-23,-21,-19,-17,-16,-14,-13,-12,-11,-10,-8,-8,-7,-6,-6,-5,-5,-5,-5,-5,-5,-5,-6,-6,-6,-6,-6,-7,-7,-7,-7,-7,-8,-8,-8,-8,-8,-9,-9,-10,-10,-10,-10,-10,-10,-10,-10,-10,-10,-10,-9,-9,-8,-8,-7,-7,-6,-6,-6,-6,-6,-6,-6,-6,-6,-6,-5,-5,-6,-6,-7,-7,-7,-7,-7,-7,-8,-8,-7,-7,-7,-7,-7,-7,-8,-8,-8,-8,-8,-8,-9,-9,-10,-11,-11,-12,-12,-12,-12,-12,-12,-12,-12,-12,-12,-12,-12,-12,-12,-12,-11,-11,-11,-11,-11,-10,-10,-10,-10,-9,-9,-9,-8,-8,-8,-8,-8,-7,-7,-7,-7,-7,-6,-5,-4,-4,-3,-2,-1,-1,-2,-2,-3,-3,-4,-5,-5,-5,-5,-5,-5,-4,-3,-2,-1,-1,0,1,3,5,6,7,8,9,9,10,10,10,10,10,11,11,12,12,14,17,21,31,45,68,93,121,134,143,141,117,66,-9,-106,-216,-325,-412,-445,-443,-389,-295,-191,-101,-39,-3,15,30,45,60,67,69,70,71,72,72,71,71,71,70,69,67,66,65,64,63,62,61,61,61,60,60,59,59,59,59,58,57,56,55,53,52,50,48,46,45,43,41,39,38,36,36,38,40,44,48,52,58,66,73,80,86,92,98,104,110,116,123,131,135,138,142,144,147,148,149,149,149,148,146,143,140,136,128,114,102,89,74,58,42,27,12,0,-11,-23,-33,-41,-52,-57,-60,-63,-65,-67,-68,-69,-71,-71,-71,-72,-72,-72,-72,-72,-72,-71,-71,-71,-71,-70,-70,-69,-69,-68,-66,-63,-60,-57,-55,-53,-52,-50,-49,-48,-47,-45,-44,-43,-42,-41,-41,-40,-40,-40,-40,-39,-39,-39,-39,-39,-38,-38,-38,-38,-38,-39,-38,-38,-38,-37,-37,-37,-37,-37,-37,-36,-36,-36,-36,-35,-35,-35,-35,-34,-34,-33,-33,-33,-32,-32,-31,-30,-30,-29,-28,-28,-28,-27,-27,-27,-27,-28,-28,-29,-29,-29,-30,-30,-30,-30,-30,-30,-30,-30,-30,-30,-30,-30,-30,-31,-31,-31,-31,-31,-31,-31,-31,-31,-31,-31,-31,-31,-31,-31,-31,-31,-31,-31,-31,-31,-30,-29,-28,-27,-26,-25,-23,-22,-21,-20,-19,-18,-17,-17,-17,-18,-18,-18,-19,-20,-21,-22,-23,-24,-24,-25,-25,-26,-26,-26,-26,-26,-26,-26,-26,-26,-25,-25,-24,-23,-22,-21,-20,-19,-18,-18,-18,-18,-18,-18,-18,-18,-18,-18,-18,-18,-18,-18,-17,-16,-14,-12,-10,-8,-7,-5,-4,-3,-2,-1,-1,0,0,0,0,1,1,1,2,3,4,5,7,11,18,30,49,74,98,123,132,136,131,100,44,-35,-134,-242,-344,-421,-454,-436,-373,-281,-185,-105,-50,-16,4,24,43,51,53,56,59,62,63,64,65,64,64,63,62,61,60,59,59,58,57,57,57,56,56,56,56,56,57,57,57,57,57,56,56,55,55,54,54,53,53,53,53,52,52,52,52,53,56,61,65,70,76,81,86,90,96,105,112,119,125,131,137,140,143,146,149,150,152,152,151,151,149,147,145,141,134,121,110,98,85,72,58,43,28,14,0,-12,-24,-37,-47,-53,-59,-66,-69,-70,-72,-74,-76,-77,-79,-80,-81,-81,-82,-82,-82,-82,-81,-81,-80,-78,-77,-76,-74,-72,-71,-70,-68,-67,-66,-65,-64,-62,-61,-59,-57,-55,-53,-51,-49,-47,-45,-44,-43,-41,-41,-40,-39,-39,-39,-39,-39,-40,-40,-40,-40,-40,-40,-40,-40,-39,-39,-39,-38,-38,-37,-36,-36,-35,-34,-34,-34,-33,-32,-32,-31,-31,-31,-30,-29,-29,-28,-28,-27,-27,-26,-26,-25,-25,-25,-25,-25,-26,-26,-26,-26,-26,-27,-27,-28,-28,-28,-28,-28,-28,-28,-27,-27,-26,-26,-26,-26,-26,-25,-25,-25,-25,-24,-24,-24,-23,-23,-23,-23,-23,-23,-23,-23,-22,-22,-22,-21,-21,-21,-21,-21,-21,-20,-20,-20,-20,-19,-19,-19,-18,-17,-17,-16,-16,-15,-14,-14,-13,-12,-11,-11,-10,-9,-9,-9,-8,-7,-7,-6,-5,-4,-4,-2,-1,0,0,1,2,3,4,4,3,3,2,1,1,0,0,0,0,-1,-1,-1,0,1,3,4,6,7,8,9,10,11,12,13,14,15,16,16,16,17,17,18,18,18,19,20,22,26,35,51,73,98,123,143,151,150,135,96,27,-62,-168,-277,-371,-422,-428,-398,-322,-230,-146,-82,-41,-13,4,22,40,55,65,68,69,70,69,69,68,68,68,66,65,64,63,62,61,60,59,59,58,57,57,56,56,56,56,56,55,55,54,54,53,52,52,52,51,51,51,51,52,53,54,55,57,60,62,65,68,75,82,88,96,104,111,117,122,128,133,138,143,148,152,155,158,160,162,164,165,165,164,161,158,154,148,137,128,115,101,87,71,56,40,24,9,-3,-17,-27,-34,-43,-49,-54,-58,-61,-64,-66,-67,-68,-70,-71,-72,-73,-74,-74,-74,-74,-73,-73,-72,-71,-70,-69,-68,-67,-65,-63,-61,-59,-57,-55,-53,-52,-49,-47,-45,-43,-40,-38,-37,-36,-35,-34,-34,-34,-33,-33,-33,-33,-33,-33,-33,-33,-33,-33,-33,-33,-32,-32,-32,-32,-32,-32,-32,-32,-32,-32,-32,-32,-32,-32,-32,-32,-33,-33,-33,-32,-32,-32,-32,-31,-31,-31,-31,-31,-30,-30,-30,-30,-29,-29,-29,-29,-29,-29,-29,-30,-30,-30,-30,-30,-31,-31,-31,-31,-31,-31,-31,-31,-31,-31,-31,-31,-32,-32,-32,-32,-33,-33,-34,-34,-34,-33,-32,-32,-31,-30,-30,-29,-29,-28,-28,-28,-28,-27,-27,-26,-25,-24,-24,-23,-22,-21,-21,-21,-20,-20,-19,-19,-18,-18,-17,-17,-16,-15,-15,-15,-14,-14,-13,-13,-12,-12,-12,-12,-11,-11,-10,-10,-9,-8,-7,-5,-4,-3,-3,-3,-3,-4,-4,-5,-6,-6,-7,-8,-8,-9,-8,-8,-7,-6,-4,-3,-2,-1,0,0,1,2,3,4,6,7,7,8,10,11,13,15,16,16,17,19,21,29,44,67,93,119,140,148,148,134,97,29,-61,-168,-277,-372,-424,-430,-398,-318,-220,-129,-60,-15,14,31,47,62,68,71,73,76,77,78,78,78,77,76,74,72,71,70,69,68,67,67,67,67,68,68,68,69,70,70,71,71,72,73,73,73,72,72,71,69,67,66,64,63,62,61,60,59,59,59,60,61,63,65,67,69,72,75,82,89,96,104,112,121,126,129,132,134,136,137,138,138,137,137,135,132,130,126,119,106,93,79,64,48,32,16,0,-13,-25,-37,-48,-56,-65,-69,-71,-73,-75,-76,-77,-78,-79,-80,-80,-80,-80,-80,-80,-79,-79,-79,-79,-79,-79,-79,-78,-78,-77,-76,-75,-74,-73,-72,-70,-69,-67,-65,-63,-61,-60,-58,-56,-54,-52,-50,-49,-48,-47,-46,-46,-46,-46,-46,-47,-47,-47,-47,-47,-47,-46,-46,-46,-45,-45,-44,-44,-43,-43,-43,-43,-43,-43,-44,-44,-43,-43,-42,-42,-41,-40,-39,-39,-38,-38,-37,-37,-36,-36,-35,-35,-35,-35,-35,-35,-35,-35,-35,-34,-34,-34,-34,-33,-33,-32,-31,-30,-30,-30,-29,-29,-29,-29,-28,-28,-27,-27,-27,-27,-26,-26,-25,-24,-23,-22,-22,-21,-20,-20,-19,-18,-17,-16,-16,-15,-14,-12,-12,-10,-9,-8,-7,-7,-6,-6,-5,-5,-4,-3,-2,-2,-1,-1,0,0,0,0,1,1,2,2,2,2,3,2,2,2,1,1,0,0,0,0,0,0,1,2,3,5,7,9,11,13,15,16,18,20,21,22,23,24,24,24,25,25,25,26,25,25,25,26,27,31,43,57,72,98,122,131,137,135,111,62,-7,-96,-196,-292,-366,-388,-383,-325,-230,-123,-27,41,80,95,99,102,102,101,96,90,85,78,71,65,61,57,52,48,44,40,37,35,34,32,31,31,31,31,31,32,33,35,36,37,38,39,40,40,40,40,39,38,37,35,33,31,29,27,25,23,21,19,17,15,15,15,18,21,25,30,34,41,47,52,58,64,71,77,81,83,86,88,89,90,91,90,89,86,83,79,73,63,54,42,27,12,-2,-16,-30,-43,-57,-68,-77,-88,-93,-96,-99,-100,-102,-103,-105,-106,-106,-106,-106,-106,-105,-104,-103,-101,-100,-99,-97,-96,-95,-93,-91,-90,-88,-86,-84,-82,-80,-78,-76,-75,-73,-72,-70,-68,-65,-62,-59,-55,-52,-48,-44,-40,-35,-32,-29,-27,-26,-26,-25,-25,-25,-26,-26,-26,-26,-26,-26,-25,-24,-23,-21,-19,-17,-15,-14,-12,-11,-9,-9,-8,-7,-7,-6,-6,-5,-4,-3,-2,-2,-1,0,0,1,2,3,4,5,6,7,8,8,9,10,11,12,13,14,15,16,18,19,20,21,22,22,23,24,24,25,26,26,27,27,28,28,28,28,29,29,30,31,31,32,33,34,35,35,36,37,38,39,39,40,41,41,42,42,42,42,42,42,43,43,43,43,43,44,44,44,44,44,44,44,44,44,43,43,43,43,42,42,43,43,43,43,43,43,43,43,42,41,41,40,39,37,36,35,34,34,33,33,34,35,36,38,39,40,41,42,43,44,45,46,47,48,49,49,49,49,49,49,50,51,53,55,57,62,68,81,101,127,154,167,176,174,151,101,26,-69,-180,-289,-377,-411,-410,-357,-263,-158,-67,-4,28,44,55,66,77,84,86,88,89,90,89,87,84,81,79,77,76,74,73,69,68,66,62,51,34,21
