-187,-236,-286,-340,-375,-396,-405,-411,-416,-422,-427,-432,-439,-448,-470,-500,-521,-543,-567,-595,-616,-626,-634,-640,-645,-650,-660,-681,-700,-709,-719,-734,-750,-760,-769,-777,-784,-788,-788,-787,-783,-778,-770,-744,-683,-612,-515,-403,-297,-204,-137,-113,-112,-130,-179,-253,-342,-437,-522,-587,-610,-616,-619,-622,-624,-625,-626,-627,-627,-627,-626,-624,-621,-617,-613,-608,-603,-595,-577,-559,-545,-537,-529,-519,-509,-499,-491,-484,-477,-471,-466,-462,-458,-455,-451,-446,-438,-424,-408,-392,-376,-357,-344,-335,-327,-318,-309,-300,-290,-279,-268,-260,-252,-242,-228,-214,-204,-197,-189,-178,-164,-150,-132,-121,-113,-108,-105,-103,-100,-98,-96,-96,-99,-104,-109,-115,-119,-125,-133,-142,-148,-151,-154,-156,-158,-161,-163,-165,-164,-161,-156,-151,-146,-141,-136,-132,-129,-126,-124,-121,-117,-114,-110,-107,-102,-96,-87,-69,-54,-18,32,109,186,249,268,275,280,262,207,137,52,-38,-125,-173,-189,-173,-147,-118,-72,-22,6,27,41,47,41,27,14,-1,-9,-14,-19,-25,-9,15,44,65,78,91,103,110,115,119,121,124,126,129,132,134,136,138,141,145,150,158,170,181,189,198,209,222,229,232,235,237,239,241,243,247,250,253,255,257,260,264,272,288,296,303,310,309,290,273,258,246,235,222,206,187,172,162,153,145,136,124,108,93,84,78,74,70,65,59,52,45,39,33,26,19,14,12,14,18,25,31,35,39,43,49,55,60,65,71,77,83,87,91,93,95,96,98,100,103,105,107,109,111,112,113,113,113,114,114,115,115,115,115,116,116,116,117,118,118,118,119,120,120,119,118,117,116,114,112,111,110,108,108,107,106,104,103,101,100,101,101,101,102,103,105,108,111,113,114,115,115,117,121,126,128,129,127,126,126,125,124,122,120,118,117,117,117,117,117,119,123,128,132,135,137,139,142,147,152,155,155,153,151,149,147,145,141,137,134,135,140,148,157,163,171,179,186,190,191,192,191,190,191,191,192,192,192,192,193,194,194,193,193,192,190,189,188,188,187,187,188,189,191,192,193,193,194,194,194,194,195,195,196,197,199,201,203,205,209,215,221,228,236,245,256,270,280,284,287,290,293,295,295,286,273,263,254,246,239,232,226,221,217,214,211,209,206,204,201,197,194,190,186,182,178,174,168,159,151,148,149,153,159,179,232,307,411,550,715,889,1028,1082,1035,905,720,517,365,305,289,279,268,259,245,192,124,103,98,93,92,94,98,99,99,100,101,102,104,107,110,111,113,113,113,113,113,112,112,113,113,113,114,116,117,119,121,124,127,130,134,137,140,143,148,154,160,164,166,166,165,163,162,160,156,152,148,147,147,148,150,151,154,157,158,155,150,144,136,132,138,151,167,184,190,196,202,201,186,172,159,145,131,122,116,111,106,101,98,95,92,89,85,81,77,73,68,62,56,51,46,42,39,36,34,32,29,26,23,22,20,19,18,19,19,19,18,16,11,13,22,29,35,40,43,44,41,36,31,27,24,21,18,14,10,7,5,4,3,3,2,2,3,5,6,7,7,7,7,8,9,11,13,14,14,12,10,7,3,-4,-10,-4,5,11,16,21,26,28,30,31,31,31,30,28,26,23,19,18,22,26,28,29,31,33,35,36,38,40,41,41,42,43,43,44,45,48,50,52,55,58,61,63,67,71,78,86,91,90,86,78,70,62,53,44,38,33,28,23,18,11,3,-6,-24,-48,-59,-64,-68,-71,-73,-74,-73,-71,-68,-64,-58,-50,-36,-22,10,68,157,277,429,594,733,789,782,685,505,307,150,44,12,0,0,1,2,2,2,1,0,-1,-5,-10,-15,-20,-30,-39,-43,-45,-47,-48,-48,-49,-49,-49,-46,-40,-34,-29,-25,-21,-17,-13,-9,-6,-4,-2,-1,0,1,3,4,5,5,7,8,10,12,13,16,18,21,26,31,37,41,45,49,54,60,65,69,73,74,73,70,67,62,57,51,45,37,27,19,11,4,-1,-6,-12,-17,-24,-29,-35,-42,-57,-81,-98,-112,-133,-149,-162,-171,-170,-161,-150,-145,-142,-138,-135,-133,-132,-131,-129,-128,-126,-125,-123,-122,-121,-121,-119,-119,-118,-118,-118,-117,-117,-116,-115,-112,-109,-104,-99,-96,-95,-95,-96,-98,-100,-103,-106,-107,-105,-102,-100,-98,-96,-94,-92,-90,-87,-84,-81,-80,-79,-79,-79,-79,-78,-78,-78,-77,-77,-76,-74,-71,-69,-68,-67,-66,-64,-61,-59,-56,-54,-53,-51,-48,-44,-41,-38,-36,-34,-33,-32,-32,-33,-34,-36,-38,-39,-39,-40,-41,-42,-44,-45,-46,-47,-48,-47,-45,-43,-39,-34,-28,-22,-16,-8,0,8,16,23,30,37,44,51,55,54,49,40,32,24,14,3,-5,-14,-19,-23,-27,-30,-34,-38,-42,-46,-48,-51,-54,-57,-60,-63,-66,-72,-78,-82,-83,-80,-75,-68,-61,-51,-41,-30,3,55,137,262,422,602,760,846,848,779,602,394,214,92,35,6,-20,-36,-43,-48,-48,-41,-33,-26,-49,-90,-115,-122,-128,-125,-105,-84,-63,-45,-35,-29,-25,-21,-18,-15,-12,-10,-8,-6,-5,-3,-1,0,1,3,5,7,8,10,12,14,17,20,24,27,31,36,41,47,54,60,67,73,80,87,94,101,106,111,116,123,131,140,147,154,162,172,185,185,170,147,121,104,90,77,60,36,21,14,9,5,0,-5,-11,-16,-23,-30,-39,-47,-51,-53,-56,-59,-64,-68,-67,-59,-49,-43,-38,-33,-29,-26,-25,-24,-25,-27,-30,-32,-35,-38,-40,-42,-45,-47,-50,-53,-56,-58,-60,-61,-61,-62,-62,-62,-62,-63,-63,-64,-65,-66,-66,-67,-69,-70,-71,-72,-72,-72,-71,-70,-69,-68,-68,-68,-68,-68,-69,-70,-70,-70,-71,-71,-71,-70,-69,-68,-66,-65,-65,-65,-65,-64,-65,-65,-65,-65,-65,-65,-64,-63,-62,-62,-63,-65,-68,-72,-76,-79,-82,-86,-89,-91,-92,-90,-86,-80,-74,-69,-65,-62,-58,-54,-51,-47,-44,-41,-38,-36,-33,-31,-29,-26,-23,-20,-15,-9,-2,4,13,26,40,41,41,41,42,41,34,24,11,-4,-23,-31,-36,-40,-44,-47,-49,-50,-52,-54,-56,-59,-60,-61,-61,-61,-61,-63,-65,-68,-72,-80,-84,-81,-71,-43,7,85,193,335,510,695,863,960,960,861,638,362,123,-16,-38,-26,16,39,19,-16,-40,-49,-56,-48,-42,-40,-37,-35,-34,-33,-32,-29,-25,-22,-19,-17,-15,-14,-11,-7,-2,2,5,5,6,7,8,9,8,6,7,16,26,35,43,50,54,58,61,66,71,77,82,88,98,114,128,140,150,156,160,162,164,166,169,170,171,171,172,172,171,170,168,165,161,157,153,146,132,117,98,74,53,37,20,7,-1,-10,-19,-28,-34,-39,-43,-47,-52,-56,-60,-64,-67,-70,-74,-77,-80,-83,-87,-90,-93,-95,-97,-97,-97,-97,-96,-94,-92,-89,-87,-85,-83,-81,-80,-79,-79,-80,-80,-81,-81,-82,-83,-86,-88,-91,-93,-95,-99,-109,-109,-96,-84,-73,-65,-61,-58,-55,-50,-46,-51,-62,-72,-83,-91,-96,-100,-105,-112,-116,-111,-101,-95,-89,-85,-82,-79,-77,-74,-71,-69,-67,-66,-65,-63,-58,-54,-52,-54,-60,-65,-69,-73,-77,-80,-81,-80,-77,-72,-68,-65,-64,-62,-59,-56,-53,-50,-46,-44,-42,-40,-39,-38,-37,-37,-36,-34,-32,-30,-27,-23,-19,-14,-8,-2,4,11,22,42,62,75,85,93,96,94,88,81,71,56,44,28,9,-2,-11,-15,-15,-12,-10,-8,-5,-4,-4,-5,-8,-10,-11,-12,-14,-16,-17,-19,-20,-19,-17,-14,-8,-1,8,44,111,195,301,434,591,738,840,852,809,654,447,242,88,24,5,-4,-10,-16,-19,-23,-27,-31,-34,-37,-38,-35,-31,-27,-26,-25,-26,-26,-26,-25,-25,-25,-24,-23,-21,-20,-18,-16,-14,-12,-10,-7,-5,-2,0,3,7,12,18,23,27,32,37,41,46,51,56,63,71,79,87,95,104,114,124,135,145,151,157,161,165,168,171,172,172,170,169,166,162,156,150,139,118,100,88,81,74,65,55,43,30,13,-7,-23,-35,-51,-67,-70,-72,-75,-77,-79,-78,-73,-67,-63,-60,-58,-56,-53,-50,-46,-44,-41,-39,-38,-36,-35,-35,-36,-37,-38,-39,-41,-42,-42,-42,-42,-41,-41,-41,-42,-43,-44,-48,-53,-56,-57,-55,-51,-48,-43,-39,-38,-40,-42,-42,-44,-47,-50,-53,-54,-55,-54,-53,-51,-48,-44,-39,-35,-35,-38,-41,-43,-46,-50,-52,-51,-46,-42,-41,-39,-37,-35,-32,-30,-27,-23,-20,-18,-17,-17,-18,-19,-21,-22,-24,-26,-28,-29,-29,-29,-28,-28,-28,-30,-33,-34,-34,-30,-25,-20,-17,-13,-8,-3,0,1,1,0,0,-2,-3,-5,-7,-10,-13,-15,-16,-15,-12,-8,-2,3,10,17,27,39,52,66,76,86,94,98,97,90,78,64,46,19,2,-4,-7,-10,-13,-15,-17,-18,-20,-21,-23,-25,-28,-29,-30,-30,-30,-30,-31,-32,-33,-35,-39,-48,-53,-45,-27,0,38,105,205,346,511,667,792,840,830,730,561,371,202,87,31,14,0,-12,-26,-42,-49,-53,-57,-61,-58,-44,-38,-35,-33,-31,-30,-30,-29,-26,-24,-22,-21,-20,-19,-18,-16,-15,-14,-13,-12,-10,-7,-3,0,1,4,8,14,21,28,36,42,45,49,52,55,58,61,65,69,74,80,86,94,102,115,137,151,160,164,169,174,178,182,185,187,188,187,186,183,178,172,165,156,137,102,78,59,43,27,11,-7,-19,-28,-34,-39,-44,-47,-50,-53,-58,-64,-69,-71,-68,-60,-53,-49,-47,-44,-41,-38,-36,-35,-35,-35,-37,-39,-41,-44,-48,-52,-55,-56,-57,-59,-61,-63,-65,-66,-66,-66,-67,-68,-68,-68,-66,-65,-64,-63,-63,-64,-65,-65,-66,-67,-68,-69,-69,-70,-71,-71,-71,-71,-72,-72,-71,-70,-70,-70,-69,-69,-70,-71,-72,-72,-72,-72,-72,-72,-71,-71,-71,-71,-72,-74,-77,-80,-83,-86,-89,-92,-94,-96,-97,-97,-95,-92,-88,-84,-80,-77,-74,-70,-68,-65,-61,-56,-50,-45,-42,-40,-39,-40,-42,-45,-48,-52,-58,-64,-64,-57,-50,-47,-44,-41,-39,-38,-37,-35,-32,-30,-28,-26,-25,-24,-22,-19,-15,-12,-9,-5,0,12,27,46,57,65,72,78,83,86,86,84,80,76,72,69,66,61,56,50,44,40,35,30,24,17,5,-2,-9,-13,-16,-19,-23,-25,-27,-28,-29,-29,-28,-27,-25,-21,-17,-12,-5,3,19,33,67,126,215,342,505,688,861,953,952,855,635,384,176,70,36,19,10,3,-12,-35,-45,-49,-53,-55,-56,-55,-53,-52,-49,-44,-38,-31,-25,-19,-14,-11,-9,-7,-5,-3,-2,-1,1,3,6,9,11,12,12,12,12,13,14,15,16,18,21,25,30,37,44,51,57,64,72,84,103,127,141,151,158,165,170,175,179,181,184,187,191,196,199,200,198,191,182,173,164,154,143,134,126,119,110,101,90,79,65,42,14,-6,-32,-49,-59,-66,-69,-69,-65,-58,-52,-47,-43,-38,-34,-30,-27,-24,-21,-18,-14,-8,4,21,30,37,36,21,11,2,-4,-10,-15,-19,-21,-23,-26,-28,-30,-30,-30,-30,-29,-29,-28,-28,-27,-26,-25,-24,-23,-22,-20,-19,-17,-16,-15,-13,-12,-12,-11,-10,-9,-7,-2,-3,-17,-29,-40,-47,-49,-51,-54,-59,-59,-52,-44,-36,-37,-48,-55,-60,-65,-68,-70,-70,-70,-68,-66,-63,-60,-56,-52,-48,-45,-41,-37,-32,-27,-23,-19,-16,-12,-7,-3,-1,-3,-9,-17,-25,-30,-36,-43,-50,-56,-59,-61,-61,-60,-59,-59,-58,-57,-55,-53,-51,-47,-43,-38,-33,-28,-25,-21,-18,-16,-13,-9,-5,0,5,10,14,19,23,28,31,35,37,39,39,37,35,32,28,24,19,13,5,-3,-10,-16,-20,-23,-26,-30,-33,-36,-38,-40,-42,-44,-45,-45,-45,-46,-46,-47,-48,-50,-53,-58,-61,-55,-43,-25,1,44,120,238,392,559,712,811,818,757,582,366,169,28,-8,-21,-12,0,10,-5,-32,-61,-76,-85,-93,-97,-96,-96,-95,-94,-93,-91,-89,-87,-86,-86,-87,-90,-95,-87,-57,-39,-29,-26,-24,-22,-20,-19,-18,-17,-16,-15,-14,-12,-11,-10,-10,-9,-8,-6,-4,-1,2,7,15,24,33,43,54,65,75,84,93,109,137,159,172,181,186,189,193,197,196,182,162,136,120,110,96,79,67,57,48,38,27,14,2,-10,-27,-41,-45,-47,-48,-49,-50,-51,-53,-54,-56,-57,-57,-56,-54,-52,-49,-45,-40,-36,-32,-27,-23,-19,-16,-12,-7,-2,3,8,12,15,16,15,15,13,11,8,4,1,-1,-4,-6,-11,-16,-21,-21,-16,-7,1,8,16,24,29,30,24,15,4,-4,-14,-24,-30,-30,-25,-16,-4,13,39,47,52,56,58,60,59,56,51,45,41,37,33,30,27,26,25,26,28,32,36,42,47,51,53,56,59,62,66,70,72,74,75,76,76,76,75,73,70,68,66,65,64,63,61,58,56,54,53,52,49,45,42,40,40,42,45,50,56,62,72,88,97,102,106,111,114,110,101,97,93,89,86,83,80,79,77,77,78,81,85,92,99,106,113,118,124,133,143,151,156,155,152,147,140,132,115,83,56,37,23,17,14,11,8,6,3,2,0,-1,-3,-4,-5,-5,-4,-3,-1,0,2,4,6,10,13,17,23,55,140,268,425,602,777,913,938,915,772,555,322,143,71,49,38,30,24,19,14,10,7,4,2,2,2,4,7,11,16,23,31,39,46,50,53,55,57,60,64,69,73,78,82,85,87,88,88,87,85,83,81,80,79,78,78,80,84,87,87,86,86,86,85,85,84,83,82,81,80,79,79,79,80,80,80,80,79,77,74,71,68,65,60,51,40,29,14,-5,-29,-52,-82,-127,-161,-178,-190,-203,-214,-224,-234,-242,-252,-262,-271,-285,-315,-344,-354,-360,-365,-364,-353,-339,-329,-320,-312,-305,-302,-304,-309,-315,-322,-329,-338,-347,-353,-353,-346,-336,-325,-315,-304,-293,-285,-278,-272,-267,-264,-261,-259,-258,-257,-256,-254,-253,-252,-252,-252,-252,-252,-251,-249,-246,-243,-239,-235,-231,-227,-223,-218,-213,-210,-207,-206,-203,-200,-197,-192,-186,-179,-174,-169,-163,-158,-153,-148,-144,-141,-139,-135,-131,-126,-122,-119,-118,-118,-118,-119,-120,-121,-125,-132,-137,-131,-120,-113,-109,-105,-102,-99,-95,-89,-82,-76,-70,-65,-60,-54,-46,-38,-31,-26,-24,-23,-22,-20,-19,-19,-19,-19,-17,-14,-11,-9,-9,-10,-11,-13,-14,-16,-19,-22,-19,-10,0,11,21,32,44,56,71,93,122,140,153,165,171,163,148,138,130,122,115,109,104,99,95,90,87,84,82,80,75,69,65,61,61,63,65,66,67,69,75,79,72,56,42,28,17,17,28,46,74,121,212,332,484,652,803,901,934,900,797,586,354,173,113,93,105,118,130,128,107,84,61,47,37,27,24,37,60,71,80,89,96,102,104,104,103,102,100,99,98,96,94,91,89,87,87,87,86,86,85,84,83,83,82,81,79,77,74,72,70,67,64,59,52,45,40,42,54,70,86,100,117,134,145,148,150,151,152,153,155,157,157,156,154,151,147,142,135,127,116,95,57,42,39,36,35,34,32,30,27,24,21,17,13,8,4,1,-1,-4,-5,-8,-16,-27,-36,-42,-42,-38,-33,-29,-27,-25,-21,-16,-11,-5,0,6,12,19,25,31,33,34,34,35,36,39,42,46,50,54,60,65,69,70,69,67,64,60,55,51,47,42,38,36,35,34,33,32,30,27,22,16,10,4,-2,-8,-11,-12,-13,-12,-10,-7,-6,-6,-7,-10,-16,-21,-13,3,13,22,31,39,43,43,41,38,36,35,35,33,31,28,26,24,23,22,21,21,21,23,26,29,32,34,37,39,41,43,45,46,46,47,47,48,49,51,53,56,60,65,69,73,76,78,80,83,85,87,90,93,97,101,104,107,109,108,104,97,87,76,66,58,53,48,44,40,36,33,31,29,27,24,21,19,17,15,15,15,16,18,19,20,21,21,19,17,14,10,4,0,11,36,76,130,215,337,493,659,781,822,782,660,452,234,57,-18,-34,-45,-54,-60,-66,-73,-81,-88,-93,-98,-103,-106,-108,-111,-115,-120,-125,-130,-135,-140,-144,-146,-148,-148,-146,-142,-137,-132,-125,-117,-109,-102,-94,-85,-75,-66,-56,-46,-38,-30,-22,-13,-2,10,25,38,51,64,79,95,113,133,152,165,175,184,193,201,210,219,227,235,242,249,256,263,270,276,282,286,289,291,291,289,287,284,279,273,267,261,254,246,239,232,226,220,213,207,201,193,186,181,179,182,188,197,206,217,232,246,257,266,273,280,285,291,298,305,314,324,340,364,380,418,474,556,641,714,767,788,788,764,699,587,449,307,191,133,116,103,92,81,59,25,-5,-23,-11,24,103,183,253,296,340,379,441,504,544,577,601,620,628,631,635,637,640,642,644,646,649,652,656,659,663,665,669,673,678,683,691,700,709,717,724,731,736,740,743,746,750,753,756,758,759,761,761,761,760,758,756,754,750,747,742,735,718,696,666,633,612,600,587,571,547,511,471,434,405,382,358,299,225,190,166,147,127,100,70,42,16,0,-8,-17,-29,-42,-59,-82,-102,-119,-133,-144,-152,-167,-189,-203,-210,-214,-217,-221,-226,-232,-238,-245,-255,-269,-283,-297,-321,-352,-372,-385,-393,-399,-403,-405,-407,-411,-415,-422,-430,-440,-450,-462,-474,-487,-499,-506,-511,-515,-519,-522,-526,-529,-531,-534,-537,-540,-543,-545,-547,-550,-553,-557,-565,-575,-583,-592,-599,-608,-616,-617,-610,-601,-595,-589,-584,-579,-577,-576,-577,-578,-580,-581,-582,-583,-584,-585,-586,-587,-586,-584,-580,-577,-572,-566,-557,-551,-556,-565,-571,-577,-583,-587,-588,-587,-582,-576,-569,-561,-548,-541,-547,-561,-578,-598,-617,-631,-643,-649,-642,-630,-612,-586,-562,-538,-522,-510,-509,-521,-539,-562,-576,-585,-591,-593,-591,-584,-576,-564,-550,-570,-604,-631,-644,-652,-651,-633,-607,-577,-532,-460,-377,-323,-303,-295,-297,-303,-307,-312,-315,-318,-319,-318,-315,-313,-310,-307,-304,-303,-305,-313,-322,-330,-340,-348,-349,-344,-336,-324,-299,-269,-237,-200,-164,-134,-114,-110,-109,-108,-107,-106,-106,-106,-109,-113,-118,-122,-127,-133,-140,-147,-154,-162,-171,-183,-182,-168,-153,-136,-123,-106,-82,-67,-58,-52,-49,-51,-57,-65,-73,-83,-88,-83,-69,-31,37,130,245,383,534,674,762,770,724,579,413,260,145,99,80,58,44,34,26,19,14,10,7,3,-2,-7,-8,0,10,20,32,42,47,50,52,55,58,61,62,64,66,67,68,69,70,70,70,72,77,80,80,71,56,37,16,15,14,13,12,12,17,28,44,79,110,128,139,147,154,163,175,188,199,209,222,238,262,294,311,321,329,334,335,332,324,314,306,299,290,282,275,270,266,263,259,255,252,248,243,239,236,232,228,222,217,214,216,222,230,239,246,255,262,267,266,260,249,239,231,220,210,204,201,198,196,192,187,182,180,181,186,190,192,194,196,198,200,202,201,197,191,185,180,176,172,167,163,159,156,152,148,144,139,135,132,130,126,122,118,114,110,106,102,99,94,88,81,74,66,54,40,30,20,7,-9,-24,-31,-35,-39,-43,-46,-49,-52,-56,-60,-65,-69,-73,-76,-80,-84,-89,-95,-100,-105,-109,-113,-117,-122,-127,-131,-134,-138,-143,-150,-155,-158,-158,-154,-148,-142,-136,-130,-121,-111,-100,-89,-78,-67,-57,-45,-33,-23,-12,9,37,48,55,61,64,64,61,52,42,31,22,9,-2,-7,-4,3,11,17,23,28,33,35,33,29,25,20,15,10,4,0,-1,0,4,11,21,38,72,106,142,178,211,262,329,418,523,628,731,823,854,835,778,621,428,273,179,139,130,123,119,116,115,114,117,121,125,129,133,135,139,143,145,147,148,150,152,154,156,158,158,158,159,159,161,163,165,167,169,171,175,178,182,185,188,191,195,200,206,211,215,219,221,224,228,232,234,236,238,240,243,246,249,253,257,262,267,273,280,288,299,310,316,319,322,325,330,327,308,292,279,265,250,234,222,212,202,195,189,185,183,181,180,179,178,177,175,174,173,174,174,174,175,176,178,180,182,183,183,181,178,175,172,169,166,164,162,160,159,158,158,157,155,152,148,145,140,135,130,126,122,119,117,116,117,117,117,118,118,117,115,112,108,104,100,97,93,89,84,76,68,60,53,47,40,33,26,18,10,2,-5,-13,-21,-28,-36,-43,-50,-57,-64,-71,-79,-86,-93,-98,-104,-109,-114,-119,-124,-126,-128,-129,-131,-132,-132,-131,-129,-125,-121,-117,-114,-107,-100,-99,-107,-119,-131,-143,-155,-164,-171,-175,-180,-186,-192,-196,-200,-202,-203,-203,-203,-201,-196,-190,-182,-175,-168,-162,-158,-154,-152,-149,-146,-144,-141,-137,-133,-129,-124,-119,-114,-110,-107,-105,-103,-101,-98,-96,-93,-90,-86,-77,-52,-37,-28,-21,-16,-12,-8,-2,3,9,17,28,73,147,243,363,503,661,819,952,994,982,880,712,517,349,240,198,169,140,114,111,105,101,110,119,127,133,134,124,107,83,56,50,45,39,37,39,39,41,44,47,49,47,40,33,25,13,6,18,42,59,75,90,101,103,103,101,99,96,93,90,88,91,101,110,115,121,128,135,141,148,154,160,162,163,162,161,158,154,149,144,139,133,128,123,117,106,92,80,72,63,55,46,37,27,17,7,-1,-10,-17,-24,-30,-36,-39,-40,-38,-36,-33,-29,-25,-19,-11,0,11,12,5,-6,-26,-51,-64,-71,-75,-77,-74,-68,-57,-39,-12,0,9,16,19,17,11,6,1,-4,-10,-14,-16,-15,-10,-2,6,16,31,39,37,30,23,14,14,27,35,41,47,51,49,43,34,23,12,-3,-20,-35,-51,-67,-82,-96,-102,-107,-111,-115,-117,-118,-120,-121,-123,-124,-125,-125,-124,-124,-123,-122,-119,-116,-112,-109,-106,-103,-99,-88,-57,-28,-8,4,9,13,16,18,19,20,19,19,18,18,18,19,18,18,17,16,16,16,15,14,12,11,10,12,16,23,31,40,52,75,99,123,147,175,192,204,212,219,225,229,231,233,236,239,242,245,246,245,243,239,236,232,225,215,234,265,303,338,364,378,396,416,448,503,594,734,911,1076,1157,1152,1045,843,614,423,314,274,258,247,234,221,211,204,200,196,191,187,184,181,177,172,167,160,152,143,133,118,97,79,66,55,48,49,58,73,96,128,144,155,162,165,162,154,141,120,93,80,71,67,72,82,89,95,100,105,108,107,106,104,102,101,100,99,98,97,96,94,92,89,85,81,78,74,70,64,58,48,28,10,-5,-21,-38,-56,-73,-87,-98,-107,-117,-127,-137,-148,-159,-170,-181,-190,-198,-204,-210,-215,-219,-222,-226,-229,-232,-236,-240,-244,-246,-247,-247,-245,-242,-237,-231,-225,-218,-210,-204,-198,-193,-190,-185,-180,-174,-168,-163,-159,-157,-156,-155,-154,-153,-153,-155,-157,-160,-165,-170,-174,-174,-172,-169,-168,-166,-164,-162,-161,-159,-158,-157,-156,-156,-157,-158,-159,-159,-158,-156,-154,-153,-152,-150,-147,-143,-140,-137,-135,-133,-130,-126,-121,-116,-111,-106,-100,-94,-88,-83,-79,-76,-74,-72,-69,-65,-60,-56,-52,-48,-44,-40,-37,-34,-33,-34,-36,-37,-38,-38,-37,-35,-34,-32,-29,-25,-20,-15,-10,-6,-1,3,9,21,43,63,75,85,93,98,99,95,86,74,60,38,29,25,21,17,13,12,15,19,24,28,32,30,18,3,-5,-13,-20,-26,-33,-39,-45,-51,-56,-61,-69,-81,-87,-81,-65,-19,57,166,310,499,714,907,996,991,873,645,395,207,125,100,84,71,59,34,5,-3,-6,-10,-12,-14,-15,-15,-16,-17,-18,-17,-16,-13,-10,-6,-3,1,5,10,14,18,23,31,39,47,56,65,72,79,85,91,96,101,105,111,118,125,132,138,144,149,155,161,168,175,181,188,194,200,206,212,218,224,230,239,247,253,255,257,258,260,263,265,267,266,261,252,241,226,202,176,152,131,114,100,91,86,82,78,74,69,63,56,48,40,33,27,22,17,13,10,6,2,-1,-5,-8,-11,-14,-17,-19,-21,-23,-24,-24,-25,-26,-27,-29,-30,-32,-34,-36,-39,-43,-48,-51,-54,-56,-58,-59,-58,-58,-58,-58,-57,-58,-58,-59,-60,-60,-60,-59,-57,-58,-68,-80,-86,-90,-95,-99,-104,-108,-112,-115,-116,-116,-114,-111,-107,-101,-96,-90,-84,-79,-75,-73,-70,-68,-66,-63,-60,-57,-54,-51,-48,-45,-43,-42,-40,-39,-36,-34,-32,-30,-28,-26,-23,-19,-15,-12,-8,-4,0,3,9,15,22,28,34,40,45,50,54,57,61,64,66,68,70,72,74,75,76,77,77,76,75,73,71,68,65,62,59,56,53,51,48,44,40,37,35,33,32,30,29,29,31,32,35,37,39,41,45,51,56,63,71,117,192,302,453,630,799,916,930,877,704,479,247,70,24,12,4,0,-2,-5,-8,-10,-11,-12,-15,-20,-25,-27,-17,0,10,18,23,28,33,39,46,53,58,63,67,73,81,90,95,93,87,79,74,71,70,67,63,59,56,53,51,49,47,47,48,49,51,54,56,59,62,64,66,68,69,69,70,71,72,73,74,74,75,77,77,76,75,73,71,68,66,62,59,55,51,47,42,35,15,-1,-17,-36,-57,-81,-97,-108,-117,-123,-123,-123,-122,-122,-121,-121,-120,-119,-117,-112,-108,-106,-105,-103,-102,-101,-100,-100,-99,-99,-99,-100,-101,-102,-103,-104,-105,-106,-107,-108,-108,-108,-106,-104,-102,-99,-97,-95,-92,-89,-86,-83,-81,-78,-73,-66,-59,-54,-52,-53,-57,-61,-65,-68,-71,-74,-78,-82,-85,-88,-89,-89,-89,-88,-87,-86,-85,-83,-80,-78,-76,-75,-74,-71,-67,-64,-61,-58,-56,-55,-54,-52,-50,-49,-48,-47,-46,-43,-41,-37,-34,-29,-25,-20,-15,-8,0,12,25,34,42,49,56,62,69,74,79,84,87,90,94,97,100,102,104,105,106,106,103,99,93,86,80,73,66,57,48,40,32,25,20,16,11,6,2,0,-1,-1,0,1,4,10,17,25,42,78,141,237,371,522,678,814,882,880,800,630,421,227,81,21,5,-3,-10,-17,-24,-30,-39,-51,-57,-50,-31,0,28,38,44,40,15,-11,-37,-45,-50,-56,-58,-50,-34,-16,5,24,32,37,40,44,47,51,54,58,63,69,73,78,83,88,93,99,106,114,122,129,135,138,140,141,142,142,143,144,145,146,147,148,150,153,157,161,165,170,176,182,192,200,204,201,194,184,168,141,124,115,106,98,90,80,68,57,45,37,31,27,23,18,13,9,5,-1,-17,-37,-45,-50,-53,-55,-50,-39,-25,-8,15,31,39,45,51,55,57,55,51,45,37,27,10,-3,-16,-27,-36,-45,-51,-57,-63,-66,-63,-55,-47,-40,-31,-24,-21,-25,-33,-43,-53,-65,-76,-80,-81,-83,-84,-86,-88,-90,-92,-94,-96,-98,-99,-100,-101,-101,-101,-102,-104,-105,-106,-106,-104,-103,-102,-100,-97,-97,-101,-104,-107,-110,-112,-112,-107,-98,-89,-83,-77,-70,-64,-57,-52,-47,-43,-41,-38,-36,-34,-33,-31,-30,-28,-25,-23,-21,-18,-15,-12,-8,-4,0,9,27,42,57,71,83,92,99,105,105,100,92,84,74,62,49,27,3,-6,-12,-16,-19,-20,-21,-21,-20,-20,-19,-17,-15,-12,-9,-4,-1,-1,-7,-17,-33,-49,-59,-52,-3,92,230,405,599,778,906,946,872,692,445,200,4,-84,-115,-98,-68,-52,-47,-43,-45,-63,-77,-90,-99,-98,-90,-81,-77,-75,-74,-72,-70,-69,-68,-66,-64,-62,-59,-57,-55,-54,-54,-54,-54,-52,-50,-47,-37,-23,-19,-15,-13,-13,-19,-27,-34,-41,-47,-46,-40,-30,-13,12,32,47,61,68,72,76,79,83,85,87,89,91,92,93,95,97,98,99,101,103,106,107,108,106,101,93,84,75,66,52,38,27,19,11,0,-15,-30,-42,-51,-57,-62,-65,-68,-70,-71,-72,-74,-75,-75,-75,-76,-76,-76,-76,-76,-76,-75,-75,-76,-76,-76,-76,-76,-75,-75,-74,-74,-74,-74,-74,-74,-74,-73,-72,-71,-70,-70,-68,-67,-66,-65,-64,-65,-66,-67,-67,-65,-63,-61,-61,-62,-65,-69,-73,-76,-80,-85,-89,-93,-95,-95,-93,-90,-86,-83,-80,-77,-73,-70,-66,-63,-61,-60,-59,-57,-55,-54,-54,-54,-54,-53,-52,-49,-47,-45,-43,-42,-40,-38,-36,-35,-35,-36,-36,-36,-34,-33,-31,-29,-27,-23,-18,-12,-7,0,5,13,23,44,56,64,70,75,79,82,78,69,57,44,25,8,-5,-11,-15,-18,-21,-24,-27,-30,-32,-33,-35,-37,-40,-41,-40,-39,-38,-37,-36,-35,-33,-30,-25,-19,-14,-8,26,81,150,244,378,541,715,871,938,927,794,569,319,107,-2,-39,-25,-1,18,30,36,19,-8,-30,-39,-44,-47,-48,-45,-38,-32,-29,-26,-22,-19,-16,-12,-9,-5,-3,-1,0,2,4,6,9,11,15,18,22,25,29,32,36,40,44,48,52,57,63,69,75,82,89,95,102,109,115,121,126,131,137,142,146,150,154,157,161,166,172,178,182,181,176,168,160,152,143,133,125,120,114,109,104,97,88,77,65,54,43,33,25,20,13,0,-18,-25,-30,-34,-36,-36,-32,-26,-19,-13,-3,3,4,-2,-11,-18,-26,-32,-35,-33,-27,-20,-16,-13,-10,-6,-2,0,1,3,5,6,6,7,7,8,9,11,13,13,5,-3,-8,-13,-17,-20,-24,-27,-29,-31,-31,-29,-27,-24,-21,-17,-13,-9,-3,6,13,15,16,21,13,-13,-30,-46,-52,-55,-58,-60,-62,-65,-67,-69,-70,-71,-72,-74,-75,-76,-76,-75,-75,-75,-75,-76,-77,-77,-78,-79,-80,-81,-82,-81,-79,-73,-67,-59,-51,-41,-30,-19,-9,-3,1,5,10,13,15,16,16,14,10,5,-1,-8,-14,-20,-25,-29,-34,-38,-43,-46,-50,-53,-57,-61,-64,-66,-68,-70,-71,-72,-73,-74,-76,-79,-85,-91,-94,-91,-85,-74,-40,19,108,233,391,557,702,805,814,758,580,357,134,-33,-96,-96,-55,-33,-19,-28,-55,-70,-78,-79,-73,-66,-61,-58,-55,-52,-50,-48,-45,-41,-37,-34,-32,-30,-29,-28,-28,-28,-29,-29,-28,-27,-24,-22,-19,-17,-15,-14,-12,-10,-8,-7,-6,-3,4,14,27,49,69,75,77,80,81,83,84,85,86,88,90,91,92,93,94,96,98,100,101,103,105,110,116,120,119,114,105,96,89,79,70,61,53,46,41,37,33,29,25,21,17,13,10,6,3,0,-5,-14,-21,-24,-26,-29,-33,-36,-30,-20,-16,-14,-12,-10,-8,-7,-5,-3,-1,0,0,1,1,1,0,0,-1,-3,-5,-8,-10,-12,-13,-15,-16,-17,-17,-18,-19,-19,-19,-20,-22,-23,-25,-26,-27,-27,-27,-28,-27,-26,-24,-21,-19,-16,-14,-11,-9,-6,-4,-3,-2,-2,-1,-1,0,0,0,0,0,1,3,4,4,4,4,5,6,7,8,8,8,8,10,11,12,14,15,16,17,19,20,21,22,23,25,27,29,32,35,37,40,50,61,68,72,75,79,83,86,85,77,66,56,45,34,21,8,-2,-12,-21,-26,-29,-30,-32,-33,-34,-35,-37,-38,-40,-42,-44,-47,-50,-53,-57,-62,-68,-78,-86,-87,-80,-65,-19,55,165,318,506,696,842,897,849,702,485,257,67,-30,-66,-70,-63,-56,-50,-46,-51,-63,-82,-103,-112,-116,-119,-117,-107,-96,-92,-89,-87,-85,-83,-81,-79,-77,-75,-73,-72,-71,-70,-69,-68,-66,-65,-64,-64,-63,-62,-60,-58,-56,-53,-50,-46,-41,-31,-19,-8,1,7,11,15,19,23,26,30,33,35,36,37,39,40,42,44,45,47,50,52,54,54,52,47,41,35,28,21,12,5,-1,-8,-15,-24,-32,-42,-50,-56,-63,-69,-74,-80,-88,-96,-103,-108,-112,-115,-117,-120,-123,-124,-123,-119,-114,-110,-107,-105,-102,-98,-95,-91,-88,-86,-84,-82,-80,-78,-76,-75,-74,-72,-70,-68,-66,-64,-63,-63,-63,-64,-66,-67,-68,-69,-71,-74,-77,-79,-79,-77,-73,-68,-64,-63,-61,-59,-56,-55,-54,-52,-51,-48,-46,-43,-41,-40,-40,-39,-37,-34,-31,-27,-19,-12,-12,-15,-19,-21,-23,-26,-28,-30,-31,-31,-29,-28,-27,-26,-25,-23,-21,-19,-17,-15,-13,-12,-11,-9,-8,-7,-7,-5,-3,0,5,11,16,21,26,34,43,50,54,56,58,62,66,72,77,80,83,87,87,80,71,61,46,37,31,27,23,18,13,8,5,1,-2,-6,-11,-17,-22,-27,-32,-38,-44,-49,-51,-50,-47,-41,-35,-24,-4,27,80,165,293,472,678,860,937,927,802,571,320,130,57,33,41,56,56,25,-15,-48,-59,-67,-72,-77,-79,-81,-83,-84,-83,-80,-75,-69,-62,-52,-42,-34,-29,-26,-22,-18,-15,-11,-9,-7,-5,-2,2,14,29,38,43,47,51,56,60,64,67,70,75,81,88,98,108,117,126,135,143,149,155,162,170,179,189,201,214,223,229,233,237,239,239,236,231,225,217,204,193,181,169,157,145,132,117,97,74,53,31,20,14,10,8,5,1,-1,-5,-9,-13,-17,-23,-29,-35,-40,-46,-50,-54,-59,-63,-67,-70,-72,-73,-74,-75,-76,-77,-78,-79,-79,-79,-77,-74,-70,-66,-61,-56,-48,-41,-40,-46,-54,-64,-77,-93,-110,-125,-128,-131,-134,-131,-118,-109,-102,-96,-91,-87,-83,-80,-78,-76,-74,-73,-71,-68,-66,-63,-60,-56,-52,-48,-45,-42,-39,-36,-33,-29,-25,-22,-18,-15,-12,-10,-7,-6,-5,-4,-3,-2,0,3,5,1,-6,-14,-20,-27,-33,-38,-40,-38,-36,-32,-28,-23,-18,-12,-6,-2,2,6,12,19,28,38,49,62,72,80,90,101,111,118,125,128,122,110,97,80,65,50,35,16,8,3,-1,-6,-9,-11,-13,-14,-14,-14,-14,-14,-12,-10,-8,-5,-2,0,5,14,24,36,55,81,130,208,323,475,647,811,913,925,882,734,530,326,178,99,73,66,62,59,55,49,44,40,36,33,30,27,25,24,22,22,22,23,25,28,32,36,40,43,47,52,57,60,63,65,68,70,72,73,75,76,78,80,82,85,88,91,96,105,126,139,148,153,158,161,163,165,167,169,170,172,174,176,179,182,186,189,192,195,200,205,210,213,214,213,211,207,201,191,172,157,146,132,115,91,73,63,54,43,31,21,12,2,-7,-18,-29,-40,-53,-63,-64,-63,-63,-62,-62,-61,-61,-62,-61,-60,-59,-58,-57,-56,-55,-53,-52,-52,-51,-51,-51,-51,-50,-50,-51,-50,-50,-50,-50,-51,-54,-58,-62,-65,-68,-71,-76,-81,-86,-90,-94,-98,-102,-108,-116,-123,-132,-147,-173,-196,-213,-233,-253,-271,-281,-290,-298,-275,-236,-201,-174,-150,-130,-106,-79,-61,-57,-56,-54,-54,-53,-52,-51,-51,-51,-50,-50,-50,-51,-52,-53,-54,-54,-55,-55,-56,-56,-56,-55,-53,-50,-48,-46,-44,-43,-41,-38,-36,-33,-31,-28,-22,-15,-7,0,4,7,10,14,17,21,24,30,34,34,27,16,6,-7,-20,-33,-41,-47,-51,-56,-61,-65,-69,-73,-77,-83,-93,-101,-102,-94,-84,-78,-74,-70,-67,-63,-57,-52,-47,-40,-30,9,96,217,375,556,730,844,853,789,604,388,194,61,12,-1,-13,-24,-34,-43,-52,-59,-65,-71,-75,-80,-85,-92,-99,-102,-98,-89,-78,-70,-63,-57,-51,-43,-35,-28,-24,-21,-18,-15,-13,-11,-9,-7,-6,-4,-2,0,2,3,5,6,9,13,20,27,37,47,55,61,66,71,76,81,87,93,99,104,109,113,118,122,126,129,132,134,134,134,134,133,131,127,123,119,113,105,89,75,61,47,23,10,2,-4,-10,-15,-19,-23,-27,-31,-34,-37,-41,-43,-45,-46,-47,-48,-49,-51,-52,-54,-56,-58,-60,-61,-61,-61,-59,-57,-55,-51,-48,-45,-42,-39,-37,-34,-32,-30,-28,-26,-24,-21,-18,-14,-11,-8,-5,-2,0,4,8,11,14,17,19,22,27,31,34,37,40,42,45,47,48,48,47,45,44,43,41,38,35,31,28,26,24,22,20,17,14,12,11,9,8,5,4,2,2,2,1,0,-1,-2,-4,-4,-5,-6,-7,-9,-9,-9,-9,-9,-9,-8,-8,-7,-6,-4,-3,-3,-2,-1,0,2,4,6,8,11,14,19,25,30,34,39,42,45,49,53,56,60,66,71,71,63,52,41,28,12,-8,-16,-22,-29,-35,-40,-44,-48,-51,-54,-57,-59,-62,-64,-64,-63,-61,-60,-59,-58,-56,-53,-48,-43,-37,-30,11,105,239,411,601,775,889,903,855,678,438,197,12,-55,-78,-57,-34,-17,-9,-17,-33,-53,-75,-88,-98,-105,-109,-99,-84,-77,-73,-68,-64,-60,-56,-53,-49,-45,-42,-38,-33,-30,-27,-24,-21,-18,-14,-10,-7,-4,-1,1,3,6,9,12,15,19,23,28,34,39,45,51,58,65,72,80,88,95,101,106,111,116,119,123,127,131,135,137,138,137,133,128,123,117,111,104,97,90,83,77,69,59,46,34,23,6,-20,-45,-63,-76,-83,-90,-94,-95,-91,-82,-75,-72,-70,-68,-66,-64,-62,-60,-59,-57,-56,-55,-55,-54,-55,-55,-56,-57,-57,-57,-57,-55,-54,-54,-53,-52,-52,-51,-50,-50,-50,-49,-50,-50,-50,-50,-52,-53,-54,-56,-57,-58,-60,-62,-63,-65,-69,-73,-78,-80,-80,-77,-74,-71,-70,-69,-68,-67,-65,-62,-60,-57,-56,-55,-55,-55,-55,-57,-58,-60,-61,-62,-62,-62,-62,-62,-61,-62,-62,-62,-63,-66,-68,-65,-60,-57,-55,-53,-51,-50,-49,-48,-46,-45,-44,-44,-43,-42,-42,-42,-41,-39,-38,-36,-34,-32,-29,-25,-16,7,24,33,41,49,57,63,70,76,78,75,69,61,53,43,32,19,12,6,1,-2,-5,-9,-13,-16,-19,-23,-26,-30,-34,-38,-41,-43,-45,-46,-47,-48,-49,-50,-51,-54,-58,-42,3,76,183,324,499,681,829,899,863,720,506,284,105,24,0,-14,-25,-33,-39,-46,-55,-62,-65,-66,-66,-66,-66,-66,-67,-69,-70,-70,-70,-70,-69,-68,-66,-62,-58,-54,-50,-46,-41,-35,-28,-22,-17,-13,-10,-8,-5,-3,0,1,4,6,9,12,15,18,21,25,28,34,40,45,50,55,59,63,69,75,83,91,101,113,128,137,142,146,149,151,152,151,147,140,131,115,90,74,61,47,29,5,-9,-17,-23,-31,-38,-45,-57,-73,-82,-90,-99,-113,-123,-130,-135,-139,-142,-145,-147,-149,-153,-156,-152,-144,-137,-130,-123,-115,-107,-100,-93,-85,-77,-69,-62,-55,-48,-40,-32,-24,-17,-12,-6,-1,3,7,11,13,14,17,19,22,25,26,26,25,25,26,26,26,24,23,22,21,21,22,22,21,19,17,15,13,7,4,8,15,18,20,22,24,25,27,30,33,35,37,38,39,39,38,38,39,39,40,41,43,45,47,48,49,50,50,49,48,47,45,45,54,58,60,62,64,67,68,70,72,74,76,77,79,79,80,81,83,87,94,116,136,149,157,163,168,174,178,177,168,156,136,108,91,82,74,66,58,52,47,43,40,36,33,30,28,26,24,21,17,12,4,-6,-15,-26,-35,-36,-33,-25,-3,37,103,194,313,460,620,765,843,842,763,583,361,154,8,-37,-38,-22,-14,-9,-10,-18,-29,-40,-55,-62,-64,-66,-68,-70,-69,-62,-52,-43,-33,-24,-20,-17,-14,-12,-9,-6,-4,-3,-3,-4,-7,-9,-11,-15,-21,-20,-8,0,7,14,21,28,34,38,41,43,45,47,48,50,52,54,57,60,62,64,66,68,71,74,77,83,89,94,97,101,104,107,112,117,117,111,103,92,77,60,46,36,27,20,13,5,0,-9,-20,-31,-39,-46,-52,-57,-61,-63,-64,-64,-64,-65,-66,-67,-67,-68,-69,-70,-70,-70,-67,-62,-54,-45,-28,2,51,116,204,315,427,501,509,478,364,198,1,-184,-309,-343,-338,-279,-226,-180,-128,-84,-57,-35,-19,-2,8,18,25,27,27,27,26,26,26,27,28,28,28,29,31,34,39,43,47,51,57,65,75,84,92,98,102,105,109,113,116,118,120,122,125,129,132,136,138,141,146,152,161,169,176,183,190,197,204,213,221,229,236,244,255,263,263,258,247,232,208,184,161,140,116,95,79,65,53,43,32,21,3,-16,-27,-34,-39,-45,-49,-52,-55,-58,-61,-64,-65,-64,-63,-62,-61,-59,-56,-55,-56,-59,-60,-61,-63,-64,-66,-67,-68,-69,-69,-68,-67,-65,-62,-60,-57,-54,-52,-50,-48,-45,-41,-37,-34,-34,-36,-38,-40,-42,-43,-46,-49,-53,-54,-53,-48,-41,-36,-33,-31,-28,-26,-23,-21,-19,-17,-15,-13,-10,-7,-5,-3,-1,0,2,3,5,6,7,9,12,15,18,21,23,25,27,29,30,30,30,30,31,33,36,38,38,37,36,36,36,37,37,36,34,33,32,31,31,29,27,25,24,24,23,22,21,20,17,16,15,14,12,10,8,6,4,2,1,-1,-4,-7,-10,-12,-12,-13,-13,-13,-15,-16,-16,-17,-18,-14,-9,-4,0,3,-1,-10,-17,-23,-29,-34,-38,-42,-48,-56,-57,-54,-53,-52,-52,-52,-52,-51,-50,-49,-48,-46,-45,-44,-44,-43,-41,-39,-37,-34,-28,-21,-14,-5,6,21,32,40,46,51,55,59,62,65,67,69,69,66,60,51,36,14,-1,-14,-27,-57,-90,-110,-125,-134,-143,-150,-163,-178,-187,-191,-194,-199,-205,-213,-224,-237,-242,-247,-252,-240,-205,-118,18,215,420,618,743,755,688,503,279,78,-52,-120,-151,-160,-170,-180,-214,-248,-260,-265,-270,-275,-275,-266,-261,-258,-255,-253,-252,-250,-249,-246,-244,-242,-240,-239,-238,-236,-232,-223,-206,-196,-191,-186,-182,-178,-175,-172,-170,-168,-165,-162,-155,-137,-117,-95,-76,-62,-51,-41,-32,-31,-35,-38,-40,-42,-41,-35,-27,-18,-5,6,23,39,45,49,52,54,54,53,51,50,48,45,43,44,51,61,68,75,81,85,87,87,85,81,74,64,40,18,0,-16,-38,-68,-88,-99,-106,-112,-116,-119,-121,-123,-124,-125,-127,-129,-131,-133,-136,-137,-138,-139,-140,-141,-141,-142,-143,-144,-145,-147,-149,-150,-150,-148,-144,-140,-137,-135,-133,-131,-128,-124,-122,-120,-119,-118,-116,-115,-114,-113,-113,-114,-115,-115,-115,-115,-115,-116,-116,-115,-114,-112,-110,-109,-109,-110,-112,-113,-115,-119,-118,-105,-99,-97,-94,-91,-88,-86,-84,-82,-80,-78,-76,-74,-73,-73,-73,-71,-69,-66,-63,-60,-56,-51,-40,-29,-17,-10,-5,0,2,5,6,5,4,1,-1,-5,-9,-16,-20,-15,-7,-1,3,8,15,23,32,41,50,60,69,78,85,93,100,108,116,119,117,110,102,95,88,81,74,65,57,51,45,39,33,27,19,12,5,0,-5,-11,-16,-20,-22,-23,-23,-23,-21,-18,-13,-8,12,59,127,219,356,534,721,879,956,955,866,671,438,226,74,46,36,52,73,89,74,60,52,45,42,41,42,45,47,48,49,49,49,50,52,54,56,58,60,62,63,65,66,68,70,72,73,75,76,78,80,82,85,88,91,94,97,100,103,106,110,115,122,134,158,165,169,171,172,173,175,176,177,178,179,180,182,183,185,186,188,189,190,192,194,198,205,212,212,205,196,185,168,149,129,109,86,71,60,50,38,27,16,6,-3,-13,-22,-30,-37,-41,-44,-45,-47,-50,-51,-52,-53,-53,-54,-54,-55,-55,-56,-56,-56,-56,-55,-54,-53,-53,-51,-50,-50,-50,-51,-52,-52,-52,-52,-51,-51,-51,-51,-51,-50,-50,-50,-51,-52,-54,-55,-55,-54,-53,-52,-52,-52,-54,-55,-56,-56,-58,-59,-61,-62,-62,-62,-61,-61,-60,-59,-58,-57,-56,-56,-55,-56,-56,-57,-57,-56,-55,-55,-56,-57,-58,-59,-59,-59,-59,-59,-59,-58,-55,-53,-59,-70,-77,-83,-88,-92,-93,-92,-87,-81,-75,-70,-65,-60,-56,-51,-46,-40,-33,-26,-19,-13,-8,-3,0,5,10,14,18,21,22,22,22,20,18,15,10,5,0,-6,-12,-22,-34,-46,-58,-68,-76,-83,-89,-96,-102,-107,-109,-109,-109,-109,-109,-109,-109,-109,-107,-106,-105,-85,-28,39,153,307,481,648,764,777,720,523,285,69,-86,-123,-136,-122,-112,-106,-101,-98,-96,-96,-97,-98,-99,-99,-100,-101,-103,-106,-108,-109,-109,-108,-107,-104,-100,-94,-89,-84,-79,-74,-70,-65,-61,-56,-51,-46,-41,-36,-31,-25,-19,-12,-5,1,9,18,30,49,65,80,87,92,97,101,104,108,111,115,118,121,124,126,128,131,133,137,142,147,152,154,153,147,140,132,125,116,106,98,90,82,72,59,48,38,27,17,8,0,-10,-22,-33,-39,-42,-45,-48,-50,-51,-53,-55,-57,-58,-60,-62,-63,-65,-69,-77,-76,-63,-45,-18,31,96,179,264,339,382,396,375,309,183,24,-136,-268,-336,-356,-369,-377,-385,-415,-456,-472,-483,-481,-452,-389,-298,-197,-105,-37,4,29,56,81,99,110,118,125,130,133,136,140,145,151,158,165,175,189,201,210,225,247,257,261,265,268,271,273,275,277,280,283,286,289,292,296,302,313,327,340,351,359,366,372,377,382,386,390,395,399,401,399,392,384,375,364,354,346,332,311,287,264,241,219,197,171,147,129,112,97,85,76,68,56,36,14,-5,-15,-21,-25,-29,-33,-36,-39,-42,-47,-51,-56,-60,-64,-67,-70,-73,-75,-77,-78,-79,-80,-82,-84,-86,-87,-86,-83,-80,-76,-70,-82,-96,-109,-118,-130,-142,-149,-154,-156,-153,-146,-141,-134,-129,-128,-132,-139,-150,-166,-178,-186,-189,-186,-181,-178,-174,-171,-168,-166,-168,-172,-176,-180,-183,-186,-190,-194,-197,-198,-199,-200,-202,-205,-207,-203,-194,-187,-182,-179,-176,-174,-171,-169,-166,-163,-160,-157,-153,-150,-152,-156,-163,-170,-178,-183,-184,-187,-190,-184,-179,-175,-172,-168,-165,-161,-157,-153,-148,-142,-136,-128,-113,-93,-83,-77,-73,-67,-61,-57,-54,-51,-48,-45,-42,-39,-35,-31,-27,-23,-19,-13,-7,-2,0,2,6,12,19,14,11,8,6,4,3,3,5,7,11,14,17,19,23,26,30,33,37,40,43,46,50,55,60,64,66,68,70,72,74,76,80,86,94,107,132,150,160,169,176,182,189,197,201,196,185,175,167,158,151,144,131,112,104,101,97,95,92,91,89,88,86,85,85,85,86,87,88,89,90,92,95,98,102,122,175,253,371,525,705,880,994,1003,934,739,489,250,87,42,38,54,54,30,-19,-67,-83,-77,-72,-69,-66,-63,-63,-64,-66,-67,-68,-69,-70,-70,-71,-72,-72,-72,-70,-68,-66,-64,-61,-58,-54,-51,-48,-48,-49,-51,-53,-56,-58,-61,-64,-66,-66,-61,-55,-47,-40,-31,-22,-16,-10,-3,5,10,12,14,15,16,16,17,19,22,25,28,30,32,35,37,39,41,43,44,45,46,46,46,45,43,41,37,34,30,25,20,10,0,-9,-18,-25,-32,-38,-44,-50,-55,-60,-63,-66,-69,-71,-73,-75,-75,-73,-70,-67,-64,-63,-61,-58,-55,-51,-48,-46,-44,-43,-42,-41,-41,-42,-44,-46,-48,-50,-53,-55,-58,-63,-69,-73,-77,-82,-90,-90,-79,-70,-63,-58,-55,-55,-55,-55,-54,-53,-52,-52,-52,-52,-51,-50,-50,-50,-50,-51,-52,-51,-51,-50,-50,-50,-49,-48,-45,-42,-40,-38,-36,-34,-31,-27,-25,-25,-26,-28,-30,-31,-31,-33,-35,-37,-37,-33,-27,-22,-19,-17,-15,-13,-10,-7,-4,-2,0,0,2,4,7,10,14,23,32,43,55,70,85,96,105,112,114,115,116,118,120,108,93,79,64,48,34,26,20,15,11,11,16,22,28,36,40,34,22,10,-2,-11,-18,-24,-29,-33,-33,-29,-23,-18,-14,-9,-3,3,15,56,137,256,417,602,776,902,945,878,712,489,271,107,35,13,0,-7,-14,-29,-46,-59,-55,-39,-30,-24,-22,-25,-30,-35,-41,-45,-45,-37,-28,-24,-21,-18,-15,-13,-10,-7,-3,0,3,6,9,11,14,16,18,21,23,25,27,29,30,30,31,30,29,28,27,25,22,19,16,17,24,34,47,64,80,96,112,127,136,142,148,152,154,154,151,146,139,131,121,104,93,86,74,54,38,28,18,7,1,-2,-4,-7,-10,-12,-15,-19,-22,-26,-29,-33,-37,-41,-48,-54,-58,-60,-61,-62,-63,-66,-68,-66,-62,-59,-57,-55,-54,-53,-51,-50,-49,-48,-48,-48,-49,-50,-51,-54,-56,-53,-48,-46,-44,-42,-41,-39,-38,-36,-35,-34,-34,-34,-35,-37,-38,-40,-42,-44,-46,-48,-49,-50,-50,-51,-51,-53,-54,-54,-54,-54,-53,-53,-52,-50,-47,-44,-41,-39,-37,-35,-34,-31,-29,-28,-27,-27,-27,-28,-28,-29,-30,-32,-33,-35,-35,-36,-37,-38,-41,-43,-44,-45,-46,-46,-46,-46,-46,-44,-40,-36,-32,-28,-24,-17,-2,12,27,41,49,55,60,64,66,62,53,43,35,28,20,14,8,3,0,-3,-5,-7,-10,-13,-16,-18,-20,-23,-26,-29,-33,-35,-38,-42,-46,-51,-56,-59,-59,-56,-53,-48,-39,-9,44,135,274,458,652,804,849,831,694,473,246,65,-32,-43,-17,-6,-2,0,-18,-28,-33,-37,-41,-43,-45,-47,-49,-51,-52,-52,-51,-50,-49,-48,-46,-43,-40,-36,-33,-30,-26,-21,-14,-9,-5,-1,2,5,9,12,14,17,20,25,31,37,43,48,55,61,66,70,73,76,78,82,86,90,94,101,108,116,124,134,142,146,146,146,146,146,148,146,133,126,121,117,113,109,104,100,95,89,81,65,36,18,8,1,-2,-3,-4,-5,-6,-7,-8,-9,-10,-10,-10,-11,-11,-9,-8,-6,-3,0,3,6,9,16,24,34,44,58,76,94,140,218,321,440,548,605,604,540,387,193,15,-76,-107,-88,-30,42,72,82,81,63,36,9,-1,-7,-11,-13,-11,-6,-2,0,4,9,12,13,11,7,3,-1,-6,-10,-11,-9,-4,0,3,7,12,18,25,31,34,37,40,43,45,48,50,53,55,59,63,67,70,73,77,84,91,97,103,107,110,114,119,124,129,131,131,128,121,112,102,88,64,49,38,29,23,17,12,7,0,-10,-19,-32,-50,-66,-77,-91,-101,-109,-114,-114,-112,-108,-107,-106,-106,-105,-103,-102,-101,-99,-98,-97,-96,-95,-94,-93,-93,-93,-92,-91,-90,-88,-86,-85,-84,-83,-83,-82,-83,-83,-83,-83,-82,-81,-79,-85,-90,-93,-95,-97,-97,-97,-96,-94,-91,-87,-79,-64,-57,-52,-49,-46,-44,-44,-45,-47,-49,-52,-56,-63,-64,-57,-54,-51,-49,-47,-45,-44,-43,-42,-41,-40,-40,-41,-41,-41,-41,-41,-40,-40,-41,-41,-41,-40,-39,-38,-37,-37,-36,-34,-33,-30,-27,-24,-22,-18,-14,-9,-5,-3,-2,-2,-1,-1,0,1,2,-1,-7,-12,-16,-21,-25,-28,-30,-33,-37,-37,-32,-28,-24,-23,-27,-29,-30,-32,-33,-33,-31,-26,-21,-15,-10,-2,4,8,11,13,14,15,17,19,20,20,20,20,19,17,15,12,8,4,1,-2,-7,-12,-16,-17,-15,-12,-8,-3,2,10,17,22,26,29,32,35,39,44,50,58,68,83,94,104,114,121,127,132,131,122,111,100,90,79,68,55,47,42,37,34,30,27,25,24,22,20,17,14,11,9,7,5,3,0,0,0,2,7,21,54,102,173,281,430,607,776,892,922,854,704,506,311,168,101,77,69,50,13,-2,-7,-10,-11,-13,-14,-17,-21,-24,-28,-32,-37,-42,-46,-47,-47,-47,-45,-44,-42,-39,-40,-46,-51,-56,-54,-40,-26,-12,-2,7,17,26,31,35,37,39,41,44,47,50,53,57,61,66,71,77,83,89,93,97,101,105,108,112,115,118,121,123,127,131,134,135,136,137,138,139,141,142,143,139,132,124,117,111,104,99,94,88,77,55,40,33,28,22,17,12,8,4,1,-1,-4,-7,-11,-14,-17,-19,-21,-24,-26,-28,-30,-31,-32,-33,-34,-35,-36,-37,-37,-38,-39,-41,-42,-43,-43,-43,-42,-41,-39,-37,-34,-30,-26,-20,-10,-4,-9,-19,-30,-44,-53,-59,-64,-68,-68,-62,-55,-47,-38,-33,-37,-44,-47,-49,-51,-52,-54,-55,-56,-58,-60,-62,-63,-63,-64,-64,-65,-65,-66,-66,-65,-64,-64,-63,-63,-61,-59,-57,-54,-52,-50,-48,-47,-45,-41,-36,-32,-30,-29,-30,-32,-35,-37,-38,-40,-41,-43,-45,-46,-48,-49,-48,-47,-46,-44,-41,-37,-32,-26,-15,10,23,30,36,40,41,39,35,29,21,4,-16,-23,-26,-29,-32,-34,-35,-37,-40,-43,-46,-49,-53,-56,-60,-65,-76,-85,-91,-95,-101,-108,-111,-109,-102,-79,-34,41,152,295,467,645,775,818,755,593,372,157,0,-57,-76,-58,-36,-18,-16,-26,-41,-61,-72,-79,-84,-86,-85,-84,-84,-84,-83,-83,-82,-82,-80,-78,-74,-70,-66,-62,-58,-55,-51,-45,-40,-35,-32,-29,-26,-23,-19,-15,-11,-7,-4,0,5,16,39,59,73,83,87,90,94,97,99,100,102,103,106,109,112,115,117,119,122,125,128,131,133,133,133,132,130,128,125,120,114,104,92,79,67,56,46,35,26,21,17,14,10,7,4,1,0,0,0,0,-1,-1,-1,-2,-2,-3,-3,-4,-5,-6,-6,-6,-4,-1,2,9,21,50,113,197,301,424,551,651,690,652,543,388,212,65,-11,-20,7,60,93,105,91,66,40,26,17,11,10,12,16,21,24,28,32,35,35,33,30,26,22,16,10,10,14,20,23,26,29,31,33,34,37,40,43,45,46,48,50,53,58,68,95,109,113,117,122,126,129,132,134,136,137,138,140,140,140,140,139,139,137,136,134,132,129,125,122,117,106,79,60,44,28,11,-5,-17,-23,-27,-30,-32,-33,-34,-35,-37,-39,-41,-42,-43,-44,-46,-47,-48,-50,-52,-53,-56,-59,-63,-65,-65,-62,-58,-53,-48,-42,-33,-26,-25,-30,-38,-47,-60,-69,-76,-81,-85,-85,-82,-78,-75,-73,-70,-68,-66,-65,-65,-64,-64,-63,-63,-64,-65,-66,-68,-68,-68,-69,-71,-72,-71,-68,-62,-55,-43,-29,-25,-22,-19,-18,-19,-23,-28,-33,-37,-42,-47,-49,-50,-50,-50,-49,-48,-48,-49,-49,-49,-48,-47,-46,-45,-44,-43,-41,-39,-38,-37,-36,-33,-29,-27,-26,-28,-30,-33,-34,-36,-38,-40,-40,-39,-36,-31,-27,-20,-16,-20,-28,-42,-58,-64,-69,-73,-75,-75,-73,-69,-64,-57,-47,-43,-39,-35,-39,-41,-43,-44,-45,-45,-45,-43,-41,-39,-37,-36,-34,-31,-29,-26,-25,-24,-23,-22,-22,-21,-21,-22,-22,-22,-21,-19,-18,-19,-22,-24,-26,-30,-32,-29,-22,-17,-13,-9,-6,-6,-9,-13,-18,-23,-31,-36,-31,-21,-10,3,14,28,48,72,93,105,112,116,118,116,111,104,93,70,48,34,28,25,23,22,20,17,13,9,4,-1,-10,-26,-39,-59,-74,-80,-85,-86,-83,-75,-66,-54,-46,-26,3,40,84,155,270,429,617,803,936,975,900,727,501,275,90,-5,-15,2,13,13,2,-13,-30,-38,-41,-44,-48,-51,-54,-59,-68,-80,-87,-92,-97,-99,-92,-80,-74,-70,-66,-63,-59,-56,-53,-50,-47,-44,-42,-39,-35,-27,-19,-9,0,8,13,11,8,7,5,3,2,4,8,15,23,35,52,61,67,73,77,81,83,84,85,86,87,88,90,91,92,92,93,94,95,95,94,93,92,90,87,83,80,76,71,65,58,50,43,38,33,28,21,10,1,-6,-11,-14,-17,-20,-22,-25,-28,-31,-34,-36,-39,-42,-44,-46,-49,-53,-57,-60,-62,-62,-60,-58,-55,-53,-50,-47,-43,-39,-36,-34,-32,-32,-32,-33,-34,-36,-38,-41,-44,-49,-53,-54,-48,-40,-34,-27,-21,-19,-22,-28,-36,-47,-62,-73,-80,-85,-89,-91,-91,-89,-85,-80,-75,-68,-60,-53,-48,-43,-40,-38,-36,-34,-33,-33,-32,-32,-32,-32,-32,-32,-33,-34,-35,-36,-37,-39,-40,-35,-27,-21,-16,-11,-8,-8,-12,-18,-24,-29,-35,-41,-45,-47,-46,-43,-38,-32,-26,-17,-8,0,7,14,21,28,36,45,53,61,67,74,80,84,88,92,97,104,107,101,89,76,59,45,34,25,18,14,11,8,6,3,0,-2,-7,-13,-19,-26,-35,-44,-52,-59,-67,-77,-83,-79,-70,-55,-32,8,68,148,250,387,556,739,902,984,947,790,550,297,97,0,-10,17,32,37,41,39,25,9,-7,-25,-40,-53,-58,-59,-61,-62,-64,-65,-65,-63,-58,-51,-44,-36,-27,-18,-12,-7,-4,-1,1,3,6,8,11,14,17,22,29,43,66,76,79,82,84,86,88,91,94,97,101,104,109,113,117,123,132,141,149,156,162,165,170,174,179,182,184,184,182,179,174,169,163,152,133,115,96,79,62,45,28,9,-2,-9,-15,-19,-25,-31,-38,-43,-46,-49,-52,-54,-56,-58,-59,-60,-61,-62,-63,-64,-65,-67,-69,-70,-70,-70,-69,-68,-66,-65,-63,-61,-60,-59,-58,-58,-57,-57,-56,-55,-53,-50,-47,-44,-41,-38,-36,-36,-36,-38,-41,-43,-44,-46,-47,-48,-49,-49,-48,-48,-48,-49,-51,-54,-57,-59,-62,-64,-66,-67,-67,-67,-66,-64,-62,-60,-58,-56,-55,-54,-53,-52,-52,-51,-50,-49,-47,-45,-42,-40,-38,-36,-35,-33,-31,-30,-29,-29,-29,-28,-28,-27,-27,-27,-27,-27,-27,-27,-27,-28,-28,-28,-28,-27,-26,-24,-22,-20,-17,-13,-10,-6,-2,7,35,51,61,68,74,78,80,77,71,63,51,32,23,18,15,12,9,6,3,0,-2,-5,-8,-12,-15,-18,-22,-26,-30,-33,-37,-39,-41,-41,-41,-40,-37,-32,-27,-21,4,72,174,310,472,645,788,842,831,714,508,278,89,-16,-40,-43,-46,-34,-27,-24,-22,-19,-18,-18,-18,-19,-19,-20,-21,-23,-25,-26,-28,-29,-31,-32,-33,-34,-34,-33,-32,-30,-28,-25,-21,-18,-14,-10,-7,-2,1,6,11,17,24,32,39,45,52,59,65,71,76,79,82,86,91,99,110,122,135,143,148,153,157,160,162,163,163,162,159,156,153,148,142,135,123,111,98,88,80,73,65,57,49,41,31,21,10,0,-9,-14,-19,-24,-29,-33,-36,-37,-38,-38,-38,-37,-37,-36,-36,-35,-36,-36,-29,-15,-5,4,11,14,11,3,-5,-12,-20,-28,-33,-35,-37,-39,-41,-43,-45,-47,-48,-46,-41,-35,-30,-25,-20,-15,-9,-2,3,9,16,28,73,144,242,372,524,672,760,789,758,664,501,327,183,102,71,54,31,14,6,0,-8,-16,-26,-46,-67,-76,-82,-80,-64,-54,-48,-44,-41,-38,-35,-32,-28,-24,-20,-16,-12,-9,-6,-3,0,3,6,9,12,14,17,19,21,23,26,30,35,41,48,60,70,76,80,83,86,89,92,95,98,101,103,105,105,106,105,105,103,102,100,98,95,92,88,84,79,74,60,30,8,-7,-27,-38,-45,-50,-55,-59,-62,-65,-66,-68,-70,-72,-76,-82,-87,-87,-82,-76,-72,-68,-65,-63,-62,-63,-67,-72,-78,-84,-92,-99,-99,-93,-85,-80,-75,-71,-67,-63,-60,-57,-55,-52,-50,-48,-45,-43,-42,-42,-41,-40,-39,-38,-37,-36,-36,-35,-34,-33,-32,-31,-31,-32,-32,-32,-32,-33,-34,-36,-39,-40,-41,-42,-45,-47,-49,-49,-48,-45,-43,-40,-38,-36,-33,-29,-26,-23,-21,-18,-15,-12,-10,-9,-10,-11,-12,-12,-12,-13,-14,-16,-17,-17,-17,-16,-15,-14,-14,-12,-11,-10,-8,-8,-9,-10,-12,-15,-17,-19,-21,-23,-25,-26,-26,-26,-25,-23,-22,-20,-17,-14,-11,-8,-4,-1,1,4,5,4,2,1,0,-2,-7,-9,-5,4,11,19,26,33,39,47,57,57,43,32,22,15,13,12,11,10,8,26,58,83,94,102,105,102,93,85,77,68,60,54,51,47,44,41,36,31,27,21,14,4,-6,-15,-30,-56,-88,-104,-109,-112,-114,-114,-107,-95,-76,-48,-24,-4,20,64,147,281,451,637,803,908,918,860,687,456,233,73,30,15,9,10,12,15,17,5,-14,-40,-57,-66,-72,-75,-76,-74,-71,-67,-63,-60,-56,-53,-50,-46,-45,-45,-48,-51,-55,-58,-61,-64,-68,-71,-73,-72,-71,-68,-65,-60,-51,-34,-22,-15,-9,-2,3,9,13,18,23,28,32,38,44,53,66,74,80,83,85,87,89,91,94,97,100,103,106,110,116,124,130,130,124,114,98,75,56,32,4,-23,-43,-56,-67,-76,-81,-83,-84,-85,-86,-87,-88,-90,-92,-94,-96,-99,-101,-103,-105,-106,-107,-108,-109,-110,-110,-111,-113,-116,-119,-122,-125,-129,-133,-137,-140,-142,-145,-147,-149,-150,-152,-154,-156,-159,-162,-166,-169,-172,-174,-176,-178,-180,-181,-181,-181,-181,-182,-182,-183,-185,-187,-189,-191,-193,-196,-198,-199,-201,-202,-202,-203,-205,-207,-207,-208,-208,-209,-211,-211,-212,-213,-212,-212,-211,-212,-213,-213,-213,-213,-214,-215,-216,-218,-219,-220,-221,-223,-226,-229,-232,-233,-231,-227,-220,-211,-194,-163,-140,-122,-106,-85,-59,-30,-3,11,18,23,28,35,42,48,57,68,79,90,106,132,154,168,170,171,173,157,137,119,101,77,46,31,25,20,16,12,9,7,5,5,5,5,4,3,3,4,4,4,3,3,3,3,3,6,11,16,24,37,72,146,261,456,653,830,916,912,807,607,388,199,108,78,55,38,21,3,-6,-6,-5,-4,-3,-2,-1,0,0,0,2,5,10,14,18,23,30,40,52,66,80,97,108,115,125,136,144,148,151,153,154,157,160,164,168,173,179,186,198,209,219,231,245,258,267,274,281,289,297,307,324,351,373,389,407,423,437,441,441,443,444,445,445,446,445,445,444,443,441,436,430,423,412,394,374,359,348,336,324,311,299,287,279,279,288,299,311,325,340,357,386,416,426,431,435,438,441,443,446,450,453,457,462,467,472,482,499,513,524,542,568,614,694,811,1001,1130,1188,1179,1074,863,671,576,478,472,540,642,687,703,701,678,642,606,589,576,572,574,575,576,577,578,577,576,576,577,577,578,578,576,573,570,568,566,564,563,561,559,557,555,553,550,547,545,543,543,545,548,552,555,559,563,568,574,580,590,603,618,635,655,673,686,696,710,729,754,772,788,798,800,799,799,798,798,796,784,771,757,739,724,713,704,696,687,671,644,612,584,559,533,489,417,338,273,222,164,99,33,-31,-81,-119,-138,-155,-177,-206,-230,-246,-259,-275,-297,-325,-348,-364,-377,-390,-404,-420,-433,-442,-451,-458,-465,-473,-480,-487,-494,-501,-506,-512,-518,-527,-537,-546,-557,-564,-564,-557,-548,-543,-538,-533,-529,-526,-525,-527,-530,-535,-540,-545,-549,-554,-559,-564,-567,-568,-566,-564,-561,-556,-551,-542,-526,-509,-501,-496,-493,-490,-487,-483,-479,-475,-472,-469,-467,-464,-461,-457,-451,-438,-434,-433,-431,-430,-428,-429,-434,-441,-446,-451,-455,-458,-457,-454,-448,-441,-433,-421,-411,-402,-397,-394,-392,-389,-387,-385,-383,-381,-378,-376,-374,-372,-370,-368,-365,-363,-359,-354,-348,-343,-337,-331,-325,-318,-312,-309,-310,-312,-313,-315,-317,-320,-321,-320,-316,-308,-300,-293,-285,-276,-268,-260,-254,-248,-243,-238,-233,-229,-225,-222,-218,-215,-210,-204,-195,-184,-169,-151,-145,-141,-139,-137,-134,-130,-126,-121,-114,-100,-77,-59,-45,-29,-24,-23,-20,-18,-15,-13,-12,-11,-10,-10,-10,-9,-8,-9,-10,-10,-10,-10,-9,-7,-6,-5,-5,-4,-3,-3,-2,-2,-1,0,1,3,5,7,12,19,26,33,43,80,148,275,451,663,878,1031,1070,977,774,513,256,63,-15,-25,1,53,73,74,59,37,13,1,-6,-11,-11,-8,-4,0,5,5,-3,-9,-15,-19,-19,-12,-1,13,30,36,41,45,47,44,36,28,19,18,24,28,31,33,34,35,36,39,42,46,51,56,61,67,75,84,91,96,102,110,123,138,147,152,156,159,162,164,166,167,169,170,172,174,177,180,184,193,193,185,180,177,174,170,165,160,154,145,132,112,97,77,47,26,14,4,0,-1,0,1,3,3,4,4,5,6,8,11,12,13,14,14,13,12,11,10,10,10,11,13,15,18,19,18,14,9,4,-2,-6,-1,10,21,32,37,31,18,3,-15,-34,-47,-57,-64,-66,-63,-56,-50,-46,-44,-41,-39,-37,-35,-33,-30,-26,-23,-21,-21,-20,-20,-20,-19,-17,-15,-13,-8,-4,-4,-6,-10,-13,-15,-18,-20,-23,-25,-26,-28,-29,-29,-29,-30,-30,-30,-31,-32,-34,-35,-36,-37,-35,-33,-29,-24,-20,-16,-11,-7,-4,0,3,6,8,10,14,18,25,38,67,83,90,97,102,105,107,107,104,101,96,90,84,77,65,51,37,20,2,0,-1,-2,-3,-4,-4,-4,-5,-6,-7,-8,-8,-7,-6,-5,-3,-2,0,1,4,8,11,16,44,108,210,352,519,699,856,912,899,774,556,318,134,81,64,76,92,104,91,49,-5,-30,-39,-44,-48,-49,-50,-50,-48,-43,-37,-31,-26,-21,-14,-7,-1,3,7,11,15,19,23,28,33,39,44,47,50,53,56,59,63,67,71,75,79,82,86,88,91,93,96,99,102,107,112,116,120,124,128,132,137,145,154,160,165,169,173,178,181,184,184,181,174,167,159,151,142,132,122,114,105,95,80,58,30,15,7,0,-6,-11,-15,-18,-21,-24,-26,-29,-31,-33,-34,-34,-35,-37,-38,-38,-38,-38,-38,-39,-40,-41,-40,-39,-38,-38,-38,-38,-37,-36,-35,-34,-34,-34,-34,-34,-33,-32,-30,-29,-27,-25,-24,-24,-24,-25,-26,-27,-29,-32,-34,-36,-38,-41,-43,-45,-47,-55,-75,-81,-87,-94,-93,-74,-66,-62,-58,-54,-52,-49,-45,-40,-35,-30,-26,-23,-21,-18,-16,-15,-14,-14,-14,-13,-11,-8,-5,-2,0,0,1,1,0,-2,-6,-9,-13,-18,-21,-25,-28,-30,-32,-34,-36,-38,-39,-40,-41,-41,-41,-39,-36,-32,-26,-20,-14,-8,-2,3,10,17,23,30,36,42,48,53,59,66,74,87,98,102,103,104,106,109,107,89,70,48,30,6,-20,-34,-44,-51,-56,-58,-56,-52,-48,-44,-39,-36,-35,-37,-40,-41,-43,-45,-47,-48,-46,-43,-36,-25,14,89,217,402,619,829,964,980,929,759,535,320,156,79,57,44,29,15,1,-20,-48,-54,-56,-56,-57,-57,-56,-57,-59,-60,-60,-60,-60,-60,-58,-55,-52,-48,-44,-40,-36,-31,-27,-21,-15,-8,0,8,17,25,32,40,46,51,55,58,61,63,65,66,68,70,73,76,80,83,86,90,94,99,104,109,116,133,148,163,175,186,194,198,195,186,175,164,150,137,126,115,106,98,90,81,71,61,49,31,4,-17,-30,-37,-43,-48,-52,-56,-61,-66,-70,-75,-79,-83,-87,-91,-95,-98,-100,-100,-98,-95,-91,-88,-84,-80,-76,-72,-68,-64,-61,-57,-53,-49,-46,-45,-44,-44,-45,-45,-45,-45,-44,-42,-38,-35,-34,-38,-44,-50,-59,-64,-61,-54,-50,-47,-43,-40,-39,-40,-44,-47,-50,-52,-54,-56,-59,-61,-64,-66,-68,-70,-72,-72,-70,-68,-64,-60,-56,-52,-48,-44,-41,-38,-36,-32,-28,-23,-19,-17,-15,-13,-13,-13,-15,-18,-21,-24,-27,-28,-30,-31,-34,-36,-38,-39,-40,-42,-44,-46,-48,-48,-47,-45,-44,-43,-41,-38,-34,-30,-27,-23,-19,-14,-6,2,12,23,35,50,63,71,78,82,85,89,92,94,95,94,91,87,82,76,68,52,25,6,-7,-18,-23,-26,-30,-32,-34,-35,-35,-35,-36,-36,-36,-35,-33,-30,-28,-26,-25,-23,-22,-19,-16,-12,-5,19,85,187,331,520,727,911,1022,1032,965,756,481,211,27,-45,-47,-8,23,44,58,57,35,2,-30,-42,-48,-52,-55,-57,-59,-61,-61,-60,-57,-53,-49,-44,-38,-29,-16,-2,12,20,27,33,38,42,45,46,47,47,47,47,47,47,47,48,49,51,51,50,48,46,44,40,38,46,63,79,97,112,125,136,147,156,163,168,171,174,177,181,184,185,182,175,165,154,145,135,124,113,104,95,86,71,50,37,24,10,-11,-34,-53,-65,-70,-74,-77,-79,-80,-81,-81,-81,-80,-78,-76,-73,-69,-66,-64,-62,-61,-60,-59,-57,-56,-55,-54,-54,-53,-53,-52,-51,-51,-52,-52,-53,-54,-54,-53,-53,-52,-52,-52,-52,-51,-51,-50,-51,-51,-52,-53,-53,-53,-53,-54,-54,-54,-54,-53,-52,-51,-51,-51,-50,-48,-47,-46,-45,-44,-44,-43,-42,-41,-41,-41,-41,-41,-41,-40,-39,-38,-38,-38,-38,-37,-37,-37,-37,-36,-36,-36,-35,-34,-33,-32,-31,-30,-28,-26,-23,-22,-20,-21,-22,-26,-30,-33,-37,-43,-49,-52,-50,-45,-38,-30,-18,-9,-1,5,13,19,21,20,18,15,11,14,27,34,38,41,43,46,48,49,50,50,50,49,47,44,40,36,32,28,23,18,13,7,2,0,-3,-6,-10,-14,-21,-29,-36,-39,-36,-30,-25,-20,-16,-11,-5,0,4,13,45,112,223,380,562,733,847,862,822,668,454,236,77,24,11,2,-3,-7,-10,-15,-17,-18,-20,-22,-24,-28,-36,-41,-38,-32,-29,-28,-27,-28,-28,-28,-26,-24,-21,-18,-15,-12,-9,-7,-5,-4,-3,-1,0,3,7,11,16,20,25,29,33,37,40,43,46,51,58,75,98,111,119,127,134,139,142,145,148,150,152,154,155,157,158,159,161,163,164,164,163,161,158,154,148,140,125,93,59,23,-2,-17,-27,-35,-41,-45,-49,-53,-56,-60,-64,-69,-75,-80,-86,-92,-94,-91,-83,-76,-70,-64,-59,-53,-50,-51,-52,-55,-57,-60,-63,-67,-70,-72,-71,-70,-69,-69,-68,-68,-68,-67,-66,-65,-65,-64,-63,-62,-61,-61,-62,-62,-63,-62,-62,-61,-61,-61,-60,-59,-57,-55,-54,-53,-52,-52,-52,-52,-53,-55,-57,-60,-62,-64,-65,-66,-68,-72,-75,-76,-73,-68,-62,-57,-52,-46,-39,-33,-31,-32,-36,-40,-44,-48,-51,-54,-58,-61,-62,-61,-57,-51,-46,-41,-36,-30,-23,-17,-14,-15,-17,-20,-23,-26,-28,-31,-34,-37,-39,-39,-37,-33,-29,-24,-19,-14,-10,-5,-1,2,6,10,13,16,19,21,25,28,32,34,36,39,43,47,51,55,59,64,71,78,82,82,77,70,61,50,32,18,-2,-26,-39,-46,-51,-54,-55,-54,-51,-46,-42,-39,-35,-32,-29,-25,-21,-16,-11,-7,-1,5,16,63,164,311,502,711,894,978,973,866,660,433,241,119,61,40,27,18,10,4,-2,-8,-15,-23,-40,-60,-69,-74,-77,-76,-67,-53,-38,-19,-7,-2,0,3,6,8,10,13,15,17,19,21,21,22,22,23,25,26,28,30,33,37,42,47,52,58,65,74,87,99,110,122,134,146,159,166,171,175,179,182,184,186,188,190,191,193,195,197,199,203,211,211,196,179,160,147,129,106,82,55,37,27,18,11,5,0,-7,-16,-24,-32,-46,-63,-73,-81,-84,-80,-73,-68,-64,-60,-56,-54,-54,-56,-58,-61,-65,-71,-74,-70,-63,-60,-57,-53,-49,-47,-46,-46,-46,-47,-49,-50,-52,-57,-57,-46,-39,-34,-29,-25,-23,-24,-27,-29,-31,-32,-34,-36,-38,-40,-40,-38,-34,-29,-25,-22,-19,-14,-10,-7,-6,-7,-10,-14,-20,-30,-49,-63,-73,-78,-72,-60,-48,-35,-24,-14,1,16,23,29,27,13,4,-1,-6,-11,-14,-16,-17,-18,-20,-25,-24,-16,-11,-7,-3,0,0,0,0,0,1,1,1,1,1,0,0,1,1,0,0,0,0,0,0,1,1,2,2,2,4,4,5,5,7,10,13,18,29,50,59,64,68,73,76,78,79,80,80,79,77,74,69,62,56,50,44,34,22,12,4,-2,-6,-9,-11,-15,-19,-23,-26,-27,-28,-28,-29,-29,-29,-27,-25,-23,-21,-19,-16,-13,0,45,121,234,388,574,769,934,1013,961,773,510,242,37,-59,-70,-30,15,32,31,15,-8,-35,-45,-50,-54,-56,-58,-59,-60,-61,-59,-56,-52,-48,-44,-41,-38,-36,-35,-33,-31,-29,-28,-26,-24,-22,-20,-18,-16,-14,-12,-10,-8,-6,-3,0,3,9,22,35,43,49,58,69,85,98,108,117,125,132,137,142,146,150,154,157,160,162,165,168,172,174,175,173,168,161,151,131,101,79,62,48,36,22,1,-14,-25,-33,-42,-52,-60,-66,-70,-75,-78,-82,-85,-88,-90,-92,-93,-93,-94,-93,-93,-93,-92,-92,-91,-91,-91,-91,-92,-92,-92,-92,-91,-89,-88,-85,-83,-81,-78,-75,-74,-73,-72,-71,-70,-69,-69,-69,-69,-68,-66,-63,-60,-60,-62,-66,-69,-72,-76,-79,-82,-84,-84,-82,-79,-77,-76,-76,-75,-74,-74,-73,-72,-70,-69,-69,-68,-68,-67,-67,-66,-66,-66,-66,-66,-66,-64,-63,-62,-60,-59,-58,-55,-54,-52,-52,-51,-51,-51,-51,-51,-51,-52,-53,-53,-52,-51,-51,-49,-48,-47,-46,-45,-44,-45,-45,-46,-46,-45,-44,-44,-43,-41,-38,-36,-33,-30,-29,-27,-25,-22,-19,-15,-12,-4,6,17,24,30,35,39,43,47,50,54,55,55,55,55,54,51,46,40,33,27,21,17,13,7,1,-5,-10,-14,-16,-18,-19,-21,-22,-22,-22,-22,-23,-24,-26,-26,-26,-24,-17,-10,0,20,58,122,230,383,565,736,845,857,807,648,452,260,104,41,18,16,25,33,40,42,34,19,10,3,-1,-6,-10,-16,-24,-32,-41,-49,-60,-70,-75,-71,-62,-49,-29,1,24,39,42,45,48,51,50,43,34,28,21,14,9,9,12,19,29,44,65,76,83,88,93,97,101,107,115,123,130,136,143,149,154,158,163,166,169,170,172,174,176,177,180,185,187,179,165,153,142,131,122,113,97,71,50,37,25,14,-3,-34,-58,-71,-80,-80,-75,-68,-62,-56,-51,-47,-46,-44,-43,-40,-38,-38,-37,-38,-38,-38,-38,-39,-41,-43,-46,-48,-49,-50,-52,-54,-55,-55,-53,-50,-46,-42,-39,-35,-30,-26,-24,-26,-30,-34,-37,-39,-40,-42,-45,-47,-49,-50,-51,-51,-51,-51,-50,-49,-47,-44,-42,-40,-36,-32,-31,-34,-38,-40,-43,-46,-50,-52,-54,-55,-56,-57,-56,-53,-50,-45,-41,-37,-34,-33,-31,-30,-29,-29,-29,-30,-30,-29,-28,-26,-25,-24,-24,-24,-23,-23,-23,-23,-23,-23,-22,-21,-20,-19,-19,-20,-20,-19,-19,-19,-18,-18,-17,-16,-14,-12,-10,-10,-9,-8,-7,-5,-4,4,20,24,28,31,33,34,32,29,26,23,19,16,16,21,30,41,58,79,95,108,116,116,107,93,79,62,46,32,18,4,-4,-11,-14,-16,-19,-21,-23,-25,-27,-30,-32,-33,-32,-32,-31,-31,-30,-28,-25,-20,-15,-9,-2,31,106,219,370,552,745,913,992,988,880,665,407,177,20,-28,-45,-24,-3,13,19,9,-6,-14,-19,-24,-28,-31,-33,-35,-37,-38,-39,-39,-39,-38,-36,-33,-30,-27,-24,-21,-19,-15,-12,-7,-3,1,5,9,14,18,22,26,30,33,37,41,46,50,55,59,63,68,75,83,91,97,103,109,116,125,135,148,160,169,177,185,191,194,194,192,187,181,175,168,159,148,138,126,112,93,75,57,38,20,2,-14,-29,-37,-43,-47,-51,-54,-58,-62,-66,-71,-74,-77,-79,-81,-83,-85,-87,-88,-89,-89,-90,-91,-92,-92,-92,-92,-91,-90,-88,-86,-84,-81,-78,-76,-75,-74,-73,-72,-71,-71,-71,-70,-68,-65,-63,-62,-62,-62,-63,-63,-64,-65,-66,-68,-69,-71,-73,-74,-74,-74,-73,-72,-71,-68,-67,-65,-63,-62,-61,-61,-60,-60,-60,-60,-59,-59,-58,-58,-57,-56,-55,-55,-55,-54,-54,-53,-53,-52,-52,-52,-52,-51,-50,-49,-49,-48,-48,-46,-45,-43,-41,-39,-38,-37,-34,-32,-31,-30,-30,-29,-27,-22,-18,-15,-15,-16,-19,-21,-23,-26,-29,-36,-42,-45,-40,-29,-17,-11,-7,-3,0,4,8,12,16,20,23,26,29,31,34,36,40,45,57,69,79,87,95,101,104,101,94,84,73,59,43,26,14,4,-4,-9,-11,-12,-13,-13,-13,-14,-13,-8,-4,-2,0,2,3,1,-3,-9,-17,-25,-39,-47,-44,-34,-2,72,197,377,599,828,1006,1081,1020,830,566,304,107,32,7,22,41,56,53,26,16,10,6,1,-2,-5,-8,-11,-14,-17,-19,-22,-22,-21,-19,-17,-16,-14,-13,-12,-11,-9,-8,-6,-5,-3,-1,1,4,11,27,41,48,53,57,60,63,66,69,72,77,83,89,95,101,108,119,132,143,154,163,168,174,180,186,191,195,196,197,197,197,196,195,192,187,181,174,166,149,119,98,82,67,48,21,-10,-35,-46,-53,-58,-61,-63,-63,-62,-60,-58,-55,-51,-49,-53,-60,-62,-63,-64,-64,-65,-65,-65,-66,-67,-68,-69,-69,-69,-69,-68,-68,-68,-68,-68,-68,-67,-67,-66,-66,-66,-66,-66,-66,-67,-68,-70,-71,-72,-73,-73,-73,-72,-71,-71,-71,-71,-72,-76,-80,-82,-83,-83,-83,-82,-82,-81,-80,-79,-77,-75,-72,-68,-65,-61,-57,-50,-45,-45,-50,-55,-59,-61,-64,-65,-66,-67,-68,-69,-69,-69,-67,-64,-60,-57,-54,-51,-48,-45,-42,-38,-35,-33,-31,-30,-29,-29,-30,-32,-34,-37,-38,-40,-43,-47,-50,-52,-49,-43,-36,-29,-25,-22,-19,-15,-11,-7,-4,-1,1,3,6,8,11,12,15,18,24,35,46,55,62,67,72,76,77,75,70,63,55,44,27,11,1,-4,-9,-13,-17,-20,-23,-25,-27,-28,-30,-32,-35,-40,-44,-45,-42,-33,-22,-7,12,23,34,47,67,120,221,384,586,780,896,907,847,662,409,172,14,-29,-44,-23,-6,4,12,17,19,16,11,3,-2,-7,-11,-16,-21,-25,-28,-30,-31,-30,-28,-25,-22,-18,-14,-11,-8,-6,-3,0,3,7,11,16,20,24,28,31,34,36,38,40,42,45,48,52,56,61,65,70,76,83,99,130,147,155,162,167,170,171,171,171,172,172,172,172,171,171,171,171,168,160,149,136,116,102,92,84,75,67,57,42,16,-6,-23,-41,-52,-61,-68,-72,-72,-71,-69,-67,-66,-65,-64,-63,-62,-62,-62,-62,-62,-61,-61,-62,-62,-63,-64,-63,-62,-60,-59,-57,-56,-55,-54,-53,-53,-52,-51,-49,-46,-43,-40,-39,-39,-41,-42,-43,-44,-44,-45,-45,-46,-47,-47,-46,-45,-45,-45,-46,-47,-48,-48,-49,-49,-50,-51,-52,-52,-52,-53,-55,-59,-62,-64,-64,-62,-60,-58,-57,-55,-53,-50,-47,-44,-42,-40,-38,-36,-34,-33,-34,-34,-33,-32,-30,-28,-27,-27,-28,-29,-29,-30,-32,-35,-39,-40,-39,-34,-29,-25,-21,-17,-14,-12,-13,-15,-19,-24,-27,-32,-36,-40,-42,-42,-39,-34,-28,-20,-12,0,10,20,28,34,40,45,50,52,53,51,48,43,38,32,20,19,31,45,59,69,76,81,85,84,75,62,51,38,26,16,8,1,-5,-10,-15,-16,-18,-19,-20,-21,-21,-22,-23,-23,-24,-23,-23,-21,-18,-14,-9,8,52,123,230,375,547,716,853,909,903,813,646,451,267,130,45,8,0,-6,-11,-15,-19,-22,-25,-26,-28,-30,-33,-37,-39,-40,-38,-34,-29,-25,-22,-17,-12,-7,-3,-2,-2,-2,-1,-1,-1,-1,-2,-3,-4,-3,0,5,11,16,22,29,37,46,54,62,70,77,84,92,98,104,110,116,122,129,136,142,149,158,166,170,173,174,175,176,178,179,180,181,181,179,176,172,166,158,143,111,79,50,29,12,-5,-15,-22,-28,-33,-38,-44,-49,-54,-58,-62,-67,-72,-74,-76,-76,-76,-77,-79,-82,-83,-82,-78,-72,-69,-67,-67,-66,-64,-63,-61,-61,-62,-62,-61,-60,-60,-60,-60,-61,-61,-60,-60,-59,-59,-59,-59,-58,-57,-56,-56,-56,-55,-55,-54,-53,-53,-52,-52,-51,-49,-50,-57,-66,-72,-78,-82,-86,-88,-88,-85,-80,-74,-68,-63,-58,-54,-50,-46,-43,-41,-40,-40,-41,-44,-47,-51,-54,-57,-60,-64,-69,-73,-75,-72,-65,-58,-52,-48,-44,-40,-36,-32,-28,-26,-25,-25,-26,-26,-26,-28,-31,-34,-36,-38,-40,-43,-46,-50,-52,-50,-45,-37,-28,-20,-8,0,2,0,-3,-6,-9,-13,-15,-15,-11,-5,3,15,33,45,52,56,60,64,66,68,70,72,74,76,79,82,83,79,71,60,46,27,9,1,-4,-9,-12,-15,-16,-18,-20,-22,-23,-24,-24,-24,-25,-25,-26,-26,-26,-26,-27,-30,-17,22,73,155,278,440,625,801,922,938,896,732,515,301,139,80,64,54,47,40,34,28,22,6,-18,-30,-35,-39,-40,-41,-42,-43,-42,-39,-34,-28,-22,-15,-8,2,12,17,17,17,17,17,17,17,16,14,12,11,9,8,9,14,21,29,38,52,67,81,90,97,101,105,109,114,119,124,128,132,137,143,153,169,177,179,181,183,186,187,188,188,186,181,175,168,159,145,132,120,105,88,71,55,40,23,6,-10,-27,-45,-62,-68,-72,-75,-78,-80,-80,-79,-76,-73,-70,-66,-61,-59,-59,-60,-62,-63,-64,-65,-66,-67,-69,-69,-69,-68,-68,-67,-66,-65,-64,-62,-61,-61,-60,-60,-59,-58,-57,-56,-57,-57,-58,-59,-60,-61,-63,-65,-66,-67,-67,-67,-67,-67,-66,-66,-65,-65,-64,-64,-64,-63,-63,-62,-61,-60,-59,-59,-58,-57,-56,-55,-55,-56,-56,-56,-57,-57,-57,-58,-58,-59,-59,-58,-57,-57,-57,-56,-55,-54,-53,-51,-50,-49,-48,-47,-46,-45,-43,-41,-38,-35,-31,-27,-24,-21,-19,-17,-17,-17,-18,-19,-21,-24,-27,-29,-32,-35,-38,-42,-51,-56,-51,-39,-22,7,19,23,27,31,35,38,42,45,47,49,51,52,53,52,52,51,49,48,46,45,43,41,40,37,34,30,26,19,6,-7,-23,-35,-45,-54,-60,-60,-54,-45,-36,-27,-18,-9,-2,2,6,11,22,46,101,186,306,462,630,777,856,856,783,610,398,200,62,13,0,-9,-15,-19,-21,-22,-21,-20,-19,-17,-15,-11,-10,-9,-10,-10,-10,-9,-9,-9,-11,-12,-14,-15,-14,-12,-10,-7,-5,-3,-1,1,5,10,16,23,29,35,42,48,54,58,61,64,67,70,73,76,79,82,85,89,94,99,105,116,130,146,155,164,172,178,181,182,181,178,174,168,163,156,146,135,125,115,106,97,88,80,71,62,49,32,17,2,-13,-31,-39,-45,-49,-54,-58,-61,-62,-62,-62,-62,-61,-61,-60,-59,-57,-55,-53,-52,-51,-45,-41,-47,-57,-63,-68,-72,-75,-76,-75,-73,-70,-66,-63,-61,-58,-57,-55,-54,-53,-52,-51,-50,-50,-50,-51,-53,-55,-56,-58,-60,-61,-63,-64,-66,-66,-67,-67,-67,-68,-68,-69,-69,-70,-70,-69,-69,-69,-69,-69,-69,-69,-68,-68,-67,-67,-67,-66,-65,-65,-64,-64,-64,-63,-63,-62,-61,-61,-61,-60,-56,-52,-51,-53,-54,-54,-55,-55,-55,-55,-56,-57,-58,-59,-59,-59,-58,-57,-56,-54,-51,-48,-46,-43,-40,-37,-35,-32,-30,-26,-21,-17,-15,-13,-11,-10,-9,-7,-5,-4,-2,0,1,4,8,13,18,25,33,48,58,66,72,78,83,83,77,67,50,20,3,-4,-10,-16,-20,-24,-26,-27,-27,-27,-28,-28,-29,-29,-30,-30,-31,-31,-31,-30,-28,-24,-21,-16,-9,3,22,71,152,267,424,610,794,931,975,891,699,454,243,102,76,68,62,53,43,26,0,-18,-29,-38,-46,-54,-60,-63,-55,-40,-32,-25,-19,-14,-9,-5,-2,0,1,2,4,6,8,9,10,12,13,15,17,19,21,23,26,29,33,38,46,60,70,78,84,88,92,98,104,112,119,124,130,136,143,149,156,163,169,176,185,193,198,200,201,203,205,208,211,212,210,204,194,181,153,118,92,73,49,30,19,9,0,-5,-9,-12,-14,-16,-19,-22,-25,-27,-29,-31,-34,-38,-45,-57,-64,-68,-71,-74,-75,-73,-67,-59,-47,-33,-30,-28,-26,-24,-23,-23,-25,-29,-32,-33,-35,-36,-38,-39,-40,-41,-42,-41,-41,-40,-39,-38,-37,-36,-35,-34,-33,-29,-26,-26,-30,-34,-37,-39,-41,-43,-44,-46,-47,-46,-45,-44,-43,-42,-41,-40,-39,-37,-36,-34,-33,-32,-30,-29,-28,-27,-26,-25,-24,-22,-18,-8,4,16,28,28,16,8,1,-4,-9,-12,-14,-16,-20,-25,-19,-13,-8,-5,-7,-11,-15,-21,-23,-18,-7,1,9,15,18,21,26,33,34,23,15,8,3,0,1,6,13,21,29,39,51,61,70,78,84,90,96,100,103,104,105,108,115,113,98,85,73,59,44,36,31,25,20,16,12,9,5,3,0,-2,-5,-8,-11,-13,-16,-19,-21,-23,-24,-25,-25,-24,-22,-20,-16,0,66,166,298,463,651,831,956,970,912,723,475,234,65,-4,-28,-14,0,10,15,8,-5,-26,-54,-71,-83,-88,-80,-66,-54,-42,-33,-28,-25,-23,-22,-20,-17,-16,-14,-13,-12,-10,-7,-4,-1,0,3,7,11,16,19,22,24,26,29,32,34,36,39,41,44,48,51,55,61,73,97,116,127,136,142,147,150,153,156,158,160,162,164,166,168,172,175,174,164,151,138,122,108,96,76,46,19,0,-19,-29,-34,-39,-42,-46,-49,-52,-55,-57,-59,-62,-66,-71,-75,-79,-83,-88,-93,-98,-103,-109,-114,-120,-131,-137,-132,-121,-112,-103,-95,-88,-83,-80,-77,-73,-69,-67,-67,-68,-71,-74,-77,-79,-81,-84,-88,-92,-94,-94,-92,-89,-86,-83,-81,-80,-78,-77,-76,-76,-75,-75,-75,-75,-75,-76,-77,-78,-79,-79,-79,-79,-79,-78,-78,-77,-77,-76,-75,-74,-74,-73,-72,-72,-71,-69,-67,-63,-57,-52,-51,-52,-55,-56,-57,-58,-60,-61,-62,-60,-58,-55,-52,-50,-47,-45,-43,-40,-39,-38,-39,-39,-39,-40,-41,-43,-44,-45,-46,-46,-47,-48,-51,-54,-53,-43,-30,-21,-14,-8,-3,2,7,13,17,20,23,27,32,41,58,63,70,75,57,33,13,1,-5,-11,-16,-18,-17,-16,-15,-14,-11,-6,-9,-24,-33,-39,-43,-47,-50,-51,-52,-52,-51,-49,-44,-36,-29,-13,16,68,130,227,366,533,698,823,839,792,612,381,163,6,-34,-48,-22,6,31,31,9,-6,-19,-29,-33,-32,-30,-29,-29,-29,-30,-33,-35,-35,-35,-34,-34,-33,-31,-28,-24,-19,-14,-9,-4,0,6,14,20,23,25,27,31,43,43,32,26,22,19,18,20,23,29,37,48,70,104,127,144,148,150,152,154,155,157,158,158,158,158,158,157,155,151,148,145,141,137,132,123,114,103,92,80,69,56,42,28,13,-3,-21,-39,-45,-48,-51,-53,-55,-57,-58,-59,-60,-61,-63,-66,-68,-69,-69,-69,-69,-69,-68,-67,-65,-63,-61,-59,-58,-56,-55,-54,-54,-53,-53,-52,-52,-51,-50,-49,-48,-47,-47,-46,-45,-45,-45,-46,-47,-48,-49,-51,-52,-53,-53,-53,-53,-54,-53,-52,-51,-50,-49,-49,-50,-50,-49,-49,-49,-49,-49,-49,-49,-48,-47,-46,-46,-46,-47,-46,-45,-44,-44,-43,-43,-42,-41,-39,-37,-36,-36,-36,-36,-35,-35,-34,-35,-35,-35,-34,-32,-30,-29,-28,-27,-26,-25,-24,-22,-21,-20,-20,-18,-15,-12,-7,3,15,16,10,3,0,-5,-10,-14,-18,-18,-15,-9,-1,7,14,22,30,39,48,57,65,73,81,90,102,113,119,117,108,95,82,68,49,31,17,0,-17,-19,-17,-16,-17,-18,-19,-19,-19,-18,-18,-18,-17,-16,-14,-12,-10,-9,-8,-6,-2,1,8,35,93,173,285,438,616,783,889,899,846,680,468,272,131,64,43,30,16,6,2,-2,-5,-9,-11,-13,-16,-18,-20,-22,-23,-24,-25,-26,-26,-26,-25,-23,-20,-17,-14,-13,-11,-8,-5,-2,0,1,3,6,11,16,21,26,31,36,43,49,55,61,67,72,78,86,95,102,108,114,120,126,132,137,142,147,151,154,156,158,159,161,162,163,164,166,170,174,177,173,162,149,136,120,105,91,78,64,50,37,26,16,4,-8,-21,-34,-47,-60,-71,-82,-89,-95,-100,-103,-103,-102,-97,-89,-80,-68,-48,-36,-28,-22,-17,-14,-14,-20,-28,-37,-42,-48,-52,-57,-61,-64,-65,-65,-64,-61,-57,-53,-49,-44,-37,-29,-26,-27,-32,-39,-49,-64,-75,-83,-91,-95,-87,-74,-69,-66,-63,-60,-59,-58,-57,-55,-54,-53,-52,-52,-51,-51,-51,-51,-51,-52,-54,-55,-56,-56,-55,-55,-54,-54,-54,-53,-52,-51,-50,-49,-49,-49,-48,-46,-44,-42,-41,-42,-42,-43,-44,-46,-50,-54,-54,-49,-42,-38,-34,-30,-27,-24,-22,-20,-19,-19,-20,-21,-24,-29,-32,-28,-20,-15,-12,-9,-6,-2,1,5,9,13,15,18,22,30,42,52,57,61,65,68,70,68,63,55,47,41,37,32,26,21,17,12,9,6,2,-1,-5,-9,-14,-20,-26,-33,-38,-43,-47,-52,-57,-64,-70,-73,-69,-61,-48,-7,55,141,257,409,590,768,893,911,879,718,490,263,85,16,-9,-11,-3,4,11,9,-5,-29,-53,-63,-70,-72,-71,-64,-57,-54,-52,-50,-48,-46,-45,-43,-41,-39,-36,-33,-31,-28,-26,-23,-19,-16,-12,-9,-5,-2,1,5,9,13,17,20,23,26,29,31,34,37,40,46,56,68,81,94,105,114,121,127,130,134,137,140,141,142,143,143,142,140,136,131,126,119,109,90,77,68,60,53,44,35,23,11,0,-10,-25,-48,-65,-76,-82,-84,-86,-86,-85,-85,-85,-85,-85,-85,-86,-86,-86,-86,-86,-87,-87,-87,-87,-86,-84,-83,-81,-79,-76,-73,-69,-66,-64,-61,-56,-47,-37,-31,-28,-25,-22,-17,-12,-9,-10,-15,-23,-34,-49,-55,-60,-65,-64,-50,-43,-38,-34,-30,-26,-23,-20,-17,-14,-12,-10,-7,-3,1,10,17,18,15,12,11,10,9,9,9,8,7,6,5,4,4,5,6,6,5,4,3,2,2,2,1,2,2,3,4,6,8,10,11,12,13,14,15,17,22,29,32,31,26,22,19,16,13,11,9,7,8,11,15,19,25,31,39,48,57,66,75,82,89,96,100,101,98,93,86,78,66,48,35,29,26,24,23,21,20,19,17,16,15,14,12,11,11,11,11,11,11,11,9,8,6,2,-6,3,32,77,147,258,410,586,757,871,882,826,651,437,235,91,45,30,45,64,79,65,40,21,15,10,7,5,7,10,14,16,21,23,16,4,-2,-9,-15,-19,-19,-16,-11,-4,10,34,49,58,64,64,55,42,32,20,12,12,18,27,37,48,60,71,91,106,110,112,114,115,118,120,123,125,127,129,131,133,134,137,141,146,153,163,179,188,195,201,204,203,195,180,156,122,89,58,42,32,25,20,18,19,20,23,26,31,37,22,3,-13,-25,-37,-49,-64,-70,-74,-78,-81,-83,-85,-87,-87,-88,-87,-87,-86,-85,-84,-82,-81,-79,-77,-75,-74,-70,-63,-58,-61,-68,-72,-73,-75,-76,-77,-79,-82,-85,-87,-89,-90,-91,-91,-92,-92,-93,-93,-95,-96,-98,-99,-99,-97,-94,-90,-86,-81,-73,-65,-61,-63,-68,-77,-94,-111,-118,-123,-126,-123,-113,-98,-75,-53,-36,-26,-19,-22,-39,-45,-47,-50,-52,-55,-56,-58,-59,-61,-64,-66,-68,-68,-68,-68,-67,-66,-65,-65,-65,-65,-65,-66,-67,-67,-67,-66,-65,-63,-61,-60,-59,-57,-56,-54,-52,-50,-48,-46,-43,-37,-30,-23,-17,-12,-6,-1,5,13,27,37,43,49,55,59,58,48,33,15,-8,-21,-32,-42,-50,-57,-62,-66,-69,-72,-74,-73,-71,-68,-66,-62,-58,-54,-54,-62,-74,-87,-102,-111,-108,-101,-81,-42,12,93,207,350,511,675,818,878,869,763,561,336,163,55,3,-35,-79,-128,-143,-132,-98,-33,19
